3.841143507883820085e+00
2.079897501152842221e+00
-3.946973168421763489e+01
-7.425028688368897178e+01
-7.649683552807405817e+01
-7.491720760343139318e+01
-1.220845874203652670e+02
-1.829523932634196512e+02
-2.051538263743076413e+02
-1.391071129313888832e+02
-6.063831051237298198e+01
-5.960483105350844468e-01
3.374341769604614427e+01
6.240827686864438562e+01
8.220865869388781277e+01
6.014863418701072817e+01
1.717809986494717478e+01
-1.743660893119674649e+00
9.891850102145061996e+00
1.460043077784733256e+01
-8.741984791372949815e+00
-3.498257900166217382e+01
-2.796037474145144586e+01
1.219931552520506557e+00
6.163101868610443290e+00
-2.369453950829149846e+01
-4.198358772694700036e+01
-2.347005238496263502e+01
5.698862987998708718e+00
1.878991703232335553e-01
-3.307677715609385416e+01
-4.700701025812235656e+01
-1.935897853836108240e+01
5.786499787069956824e+00
-3.986057489762411699e+00
-3.801374859875762979e+01
-4.866668764315588902e+01
-2.057446461985778896e+01
5.465878589411309108e+00
-1.047084205441487192e+01
-3.790496875620701900e+01
-4.468598599558987416e+01
-2.130982010066523458e+01
-2.882409862027424552e+00
-1.450538019024749659e+01
-3.452776652847740024e+01
-4.322601641324396127e+01
-2.963833411738286827e+01
-1.604166080359959068e+01
-2.006876456099289641e+01
-2.871006991449918644e+01
-4.211393388061839005e+01
-4.151627718154603031e+01
-2.874030382365825886e+01
-2.121275901607310743e+01
-2.769898280074957597e+01
-4.625107452808587283e+01
-5.315072056265671563e+01
-4.137172847877166504e+01
-1.899528900633482920e+01
-2.744838806893716310e+01
-5.140822218954115641e+01
-6.860393777796008408e+01
-4.940609228290584554e+01
-2.204173956094044229e+01
-2.406686165548743261e+01
-5.846714718242832731e+01
-7.442551874998365236e+01
-5.536957122927485386e+01
-2.389813355179540011e+01
-2.960157154466036289e+01
-5.899886561432467147e+01
-7.609497857069045779e+01
-5.343003038405989003e+01
-2.041877401093404387e+01
-2.120902999945860756e+01
-5.194285863672894266e+01
-6.612549924788048372e+01
-4.777257105127856107e+01
-1.642033753158192155e+01
-1.362455471565847098e+01
-4.011520605716799537e+01
-5.080041738925041273e+01
-3.202102585586033712e+01
-6.736842294837209089e+00
2.614045765931355958e-01
-2.034115594528579152e+01
-3.164563934112191745e+01
-1.993639627089156008e+01
6.339881086243679853e+00
1.194380732965157677e+01
-8.153945898759815236e+00
-2.083614348041662723e+01
-1.251097217412838347e+01
7.396427509976355452e+00
1.813368775760669749e+01
-1.716056958166956858e-01
-1.775817074910370508e+01
-1.142024098146053745e+01
1.126140568846683898e+01
1.793843455465968262e+01
-3.923881543358844204e-01
-1.889088547178767996e+01
-1.265283208370113321e+01
1.464220044035433865e+01
1.631597995400518641e+01
-6.687584258961741135e+00
-2.005194438778281452e+01
-4.065197122163285215e+00
1.518217763541836263e+01
1.162023476889586959e+01
-1.470182464241817577e+01
-2.391338615886017038e+01
1.369418444746148378e+00
2.092834477884769484e+01
3.016024470042967476e+00
-2.521997222053365917e+01
-2.158849955234424201e+01
6.736735196016113036e+00
1.904186220995465462e+01
-7.414146214654063982e+00
-3.288250787144512088e+01
-1.905742190763508148e+01
9.741901217394863366e+00
1.348602595424663875e+01
-1.293676984187791668e+01
-3.299496173976294955e+01
-1.825401092569890693e+01
5.466927159469089581e+00
6.427652789825373247e+00
-1.773194316007884552e+01
-2.813416228694508447e+01
-1.076167910602115185e+01
2.056297315707539486e+00
-4.809170120840340346e+00
-1.656230986422868057e+01
-1.832298248911064320e+01
-7.216981059944819421e+00
-7.921374024902958944e+00
-1.022947528588579047e+01
-1.230138996280274633e+01
-5.701887693660187217e+00
-1.064067671042192487e+01
-1.957804537119923438e+01
-1.991505120851283905e+01
-9.112784055269846917e+00
3.187800717856090316e+00
-1.195924708167224004e+01
-3.325587919681900928e+01
-2.574626948021465012e+01
1.813960332607128523e+00
1.124763750727585432e+01
-1.892459705070430331e+01
-4.434154290368712736e+01
-2.881053857194823919e+01
7.910977348030470147e+00
1.148164656413352525e+01
-2.350090227385326713e+01
-4.706883421298952896e+01
-2.632182465373932700e+01
1.406299525390532423e+01
1.222803312805384657e+01
-2.461231483775752693e+01
-4.803519105157479885e+01
-2.806195598656735513e+01
8.344935507095684102e+00
1.488044134600984236e+01
-1.899702402481401720e+01
-4.525738598000595658e+01
-2.554634558811985556e+01
4.406578546259991569e+00
1.321145417609771933e+01
-1.684934255283756954e+01
-3.775369001641851696e+01
-3.424012928311366011e+01
-2.647332435358006553e+00
5.566407535150537988e+00
-6.981808003957451270e+00
-3.880588606489800441e+01
-3.815380651189917671e+01
-1.186824665462676265e+01
1.025054659914191291e+01
-2.393351983515367376e+00
-3.616512710543779008e+01
-4.502187252064261713e+01
-1.738583114666974438e+01
4.363393460721196604e+00
-1.338272188447414912e+00
-3.548131442162241456e+01
-4.605394244100148171e+01
-1.634834932982650457e+01
5.164020538553543815e+00
-1.118179936989126411e+01
-4.715133579285853216e+01
-4.502179520296125759e+01
-1.557158730186420215e+01
-1.157873965966712548e+00
-2.343095070952479375e+01
-4.562816968041364873e+01
-3.229303240853143819e+01
3.272920619075054272e-01
-5.598494985847849215e+00
-3.630085457897749279e+01
-4.506627077345579124e+01
-5.405559998258865129e+00
1.637114988080853806e+01
-9.698965584367631010e+00
-5.401797972323611674e+01
-3.805898658387039291e+01
1.408754606224015760e+01
3.311190860442597028e+01
-2.242834162935199771e+01
-7.082038843690756380e+01
-3.819384323386252333e+01
3.252615325285179892e+01
3.468963078036108527e+01
-3.468607604228674290e+01
-7.637107133163216588e+01
-3.122147011843737019e+01
4.055271016011733565e+01
3.472260310020199370e+01
-4.228628664902642953e+01
-8.413899265798502825e+01
-2.777761418796486481e+01
4.156859096438136447e+01
2.073851418873432806e+01
-5.809206919843821737e+01
-9.928477897433594990e+01
-6.776252238285233886e+01
-4.827078959649808354e+01
-9.899794189006216527e+01
-1.838878481029402678e+02
-2.137281294646128629e+02
-1.486080287795048491e+02
-6.090436768760460495e+01
5.789070188718103083e+00
3.935320072026179616e+01
4.966808409752763964e+01
5.929555693109031722e+01
5.283022557890053861e+01
3.633800701741155592e+01
1.594985638980508291e+01
-1.430753580989916784e+00
-1.820200163668593518e+01
-1.635035504971267883e+01
-3.183442103193802719e+00
2.621976379234676635e+00
-1.316093910474037187e+01
-3.426626973972256707e+01
-3.098261975212482611e+01
-4.361474083893306819e+00
4.875626703777728110e+00
-1.613317568476447761e+01
-4.170254408328397489e+01
-2.732739479534195226e+01
3.537995817102143614e-01
-8.048737933745185869e-01
-2.789494938984224248e+01
-4.173022390684762684e+01
-1.899522096363711654e+01
7.148334047379723444e+00
-1.238106344208297926e+01
-4.338130946118079123e+01
-3.763232788894740821e+01
-6.483636644476763244e+00
6.792101203680494415e+00
-3.152548152366614787e+01
-6.023000528509783180e+01
-3.404755549818020199e+01
7.255105525110318254e+00
3.726094906891562086e+00
-4.566795287309544449e+01
-6.754630298192219584e+01
-2.879714125158941940e+01
1.076450387194326908e+01
-7.066977414069952168e+00
-6.049020842554659794e+01
-6.754343089697137259e+01
-2.230157622857543487e+01
4.912373081895725413e+00
-2.369416350160506468e+01
-6.237176253556513217e+01
-6.051366703159586535e+01
-2.478536034024946488e+01
-1.501780431795872239e+01
-4.160866006702637065e+01
-6.029479766380120509e+01
-4.379722389781651515e+01
-2.754116613810976588e+01
-3.535277377804496979e+01
-5.841036562700440982e+01
-4.989162312587075832e+01
-3.174373260293274157e+01
-3.650321856776968588e+01
-6.218288323616956603e+01
-6.793227265425029771e+01
-3.660667693775748432e+01
-1.499615790734236320e+01
-3.527202111534376883e+01
-7.327302453291839868e+01
-6.526078219218310039e+01
-2.224712562022885365e+01
-6.656745549968086095e+00
-3.557745789038910544e+01
-6.410086860649988694e+01
-4.935893142267542544e+01
-2.406928652524138013e+00
5.059788171146823998e+00
-2.301926239987000145e+01
-4.234250027650693937e+01
-2.009007541801501517e+01
7.705269725236379763e+00
5.236927223907910545e+00
-9.833750326220661364e+00
-1.330629802505168335e+01
-6.337801848800703741e-01
2.640669284997722688e+00
-6.410084095226451062e+00
-2.433146603775285577e+00
1.383246917310767365e+01
1.251774667927543305e+01
-1.283448308770985768e+01
-2.406136715155698269e+01
4.452684970919760232e+00
3.574020403551235603e+01
1.465935568901653774e+01
-2.901141360612300701e+01
-3.567677043277450366e+01
1.306391999141278859e+01
4.400256358874594298e+01
9.715670502250933538e+00
-4.180124885351855113e+01
-3.261434099897379468e+01
2.121544317897171439e+01
4.387353003886317282e+01
1.558377381639995285e+00
-4.505532827427929021e+01
-2.644844788986492645e+01
2.600536996700244785e+01
3.211213553153208267e+01
-1.229927439837874914e+01
-4.020078171541917555e+01
-1.272082988567998640e+01
2.338958932783746292e+01
1.563483676743686068e+01
-2.252666050885974158e+01
-3.098925976993691478e+01
2.285307443252846848e+00
2.444094552645901786e+01
1.114427607737304760e+00
-3.104827978387310949e+01
-2.546350214834330927e+01
1.233229020726796143e+01
1.722633179842139839e+01
-1.198785892909978656e+01
-3.301680281790412153e+01
-1.951249534585000234e+01
7.975347595295559699e+00
1.236603874190929986e+01
-1.228328446748755987e+01
-3.137484809879297387e+01
-1.951975244228054507e+01
1.687553511468780965e+00
1.044186419098398133e+01
-5.802078960344617675e-01
-2.083030174189787687e+01
-2.756651809035821188e+01
-1.200667307941095352e+01
9.460726905820077803e+00
7.098264935066708858e+00
-1.526206203442650278e+01
-3.545040557513866020e+01
-3.142213007514930823e+01
8.548848700251070909e+00
2.259197025744951404e+01
-7.757649232014162344e+00
-4.749300931762593336e+01
-4.431557740810339396e+01
1.196317270147128653e+01
3.639190525382086605e+01
-4.601232371437208535e+00
-5.683881252735339018e+01
-5.065274129482565968e+01
1.239519131673212016e+01
3.651801860754483897e+01
-6.542842740898375808e+00
-5.978608970209977258e+01
-4.594300504221318704e+01
1.144704549586610653e+01
2.584574243134026261e+01
-1.458392509989034558e+01
-5.069204757129018901e+01
-3.069864240282813839e+01
1.011162310597498326e+01
1.044043402249105235e+01
-2.134313058770589322e+01
-3.815447337934638483e+01
-1.487685979192408681e+01
4.100016410825010560e+00
-7.193560157566354363e+00
-3.087591529570516613e+01
-2.443069613935366391e+01
-3.508462754832971431e+00
-1.077707147272445320e+00
-2.866955035864982548e+01
-3.267428232675749911e+01
-1.531884685034803617e+01
3.011067035857680985e+00
-1.628437880248090153e+01
-3.853169020319123916e+01
-3.751644313519565799e+01
-7.903944517994378138e+00
3.852180975149552267e-01
-2.610454525068937670e+01
-4.570030595685918229e+01
-3.588782477606838484e+01
-1.260299552795606282e+01
-1.385615245856414468e+01
-3.124601778017203202e+01
-3.806595468548345451e+01
-2.183685544113885868e+01
-1.082281843932519472e+01
-1.559981197806036768e+01
-2.886728647428037320e+01
-2.005273245058569032e+01
-8.314250359865916096e+00
-9.319078447896343320e+00
-2.526454929681559847e+01
-2.074274951006254497e+01
-7.329739869370705208e+00
2.787547299506785148e+00
-1.309769588356587455e+01
-2.839739694247152713e+01
-1.823985770200332368e+01
8.624709291444044856e-01
-4.181271604156423516e-01
-2.251798455033097213e+01
-2.820292039080952762e+01
-1.814377719330778405e+01
1.183807953619743669e+00
-9.184713249007630864e+00
-2.120196370691256504e+01
-2.648951640062801616e+01
-1.140542136441867349e+01
-1.003646118549609945e+01
-1.702704221992896905e+01
-2.044058554033922093e+01
-2.172199552986505111e+01
-2.489744505135344710e+01
-4.997967905616779660e+01
-8.517095612932001814e+01
-1.089789557063193257e+02
-1.341758390154376173e+02
-1.752425074603824839e+02
-2.043796210827037783e+02
-1.634129943661256448e+02
-6.528703588660428636e+01
3.951003020446520253e+01
7.325866370792539328e+01
5.895408236653054246e+01
4.188420660265179407e+01
4.740099125970647975e+01
5.288980068743986607e+01
2.660869732320052705e+01
-1.733501660756759932e+01
-3.002460484389498419e+01
-1.307296701751941548e+01
1.185839220033667196e+01
3.723585539341790068e-02
-2.206870071595557192e+01
-3.465062151763180509e+01
-2.036345741593749992e+01
-5.980688704162862912e+00
-4.095895603884777358e+00
-1.260402637076399834e+01
-2.610650498280089948e+01
-3.373959680440167119e+01
-2.383147298849781492e+01
-3.391722808131846456e+00
-5.606106370099533248e-02
-2.045257428052631710e+01
-4.768263431509924999e+01
-3.891684668470236375e+01
-8.488098852485391532e+00
9.039671705405394775e+00
-1.476293823797498383e+01
-5.473168074451274379e+01
-5.097547104358534398e+01
-1.012394560194504045e+01
1.316189590328546188e+01
-1.620239043009630464e+01
-6.027200194448395365e+01
-5.055688342797813561e+01
-9.196835250533304418e+00
3.860835776922320939e+00
-2.339351353127549160e+01
-5.699843842886703271e+01
-4.971251745542623723e+01
-1.281039658075842347e+01
-6.887172422396045768e+00
-4.125581142204375595e+01
-5.491721241141891596e+01
-3.589302794362688331e+01
-1.629580935545811471e+01
-3.010195051539295008e+01
-5.334858400941921275e+01
-5.292030973066021460e+01
-2.812580604075482071e+01
-2.218510750666511200e+01
-5.181181444563928551e+01
-6.959577398443239815e+01
-4.911378030523660243e+01
-1.977102611155569889e+01
-2.712015099135496854e+01
-6.428798125088869142e+01
-8.116220746668732033e+01
-4.215298445138072481e+01
-7.267997958585422857e+00
-2.970074779649534591e+01
-7.508880305714481551e+01
-8.121817902113106413e+01
-4.081295432066368534e+01
-5.255506441058841460e+00
-2.730203802653130651e+01
-6.860010448389648730e+01
-6.837904527318532644e+01
-2.691635540129017912e+01
7.006959022187692065e-01
-1.991348909581458315e+01
-5.195466288038864633e+01
-3.971784202031116706e+01
-9.599724511475974609e+00
6.753763686703202929e+00
-1.105821438654776756e+01
-2.343277446689093324e+01
-1.338302937939217507e+01
1.223830113161646027e+00
1.975823961791615124e+00
-8.835571108835630127e+00
-1.060832829775958608e+01
3.033303322784305145e+00
9.405691646460418553e+00
-3.586281726404443759e+00
-1.409455397552883582e+01
4.417604218670729832e-01
1.517291915670364943e+01
9.283429027460407212e+00
-1.169065697943123538e+01
-1.970146362145145247e+01
-1.388191027257804855e+00
2.144058962090656451e+01
7.669627935301873478e+00
-1.630370986750126860e+01
-2.382868560613498232e+01
8.209762572082655030e-01
2.125948835113634772e+01
9.076929087355987136e+00
-1.857272138474712975e+01
-2.617696867340654165e+01
-3.288696668614084828e+00
1.702665353406257864e+01
1.105228714896437481e+01
-1.446821134172815704e+01
-2.805887213182334960e+01
-8.820352338057402264e+00
1.183663651702021724e+01
7.456414196714973741e+00
-1.029382832300486150e+01
-2.131276655209532933e+01
-1.203145439048068610e+01
2.100130819027893558e+00
1.055870477083861303e+01
-3.271201055990276441e+00
-1.807134107776924736e+01
-2.051846391377494427e+01
-2.808030143668974965e+00
6.906683735410639180e+00
1.664605633783393657e+00
-1.945677862325088370e+01
-2.813449934934764585e+01
-1.177674826942285335e+01
4.033446837508645189e+00
6.839993139231449248e+00
-1.429885375491183730e+01
-3.272865973157295372e+01
-2.003421200588812567e+01
1.014223860832462343e+01
9.678993568936204994e+00
-1.496275967712995048e+01
-3.687920271939606209e+01
-2.210826244787758910e+01
1.292212998902369137e+01
1.154944248206107638e+01
-1.933330422857774877e+01
-4.279420995846346187e+01
-1.974769380516658757e+01
1.159587477433886882e+01
1.175184985778731317e+01
-2.294564868440134831e+01
-4.147330241668354489e+01
-1.888030811240707152e+01
9.201615647857741109e+00
1.070331233232881196e+01
-2.920086632191179632e+01
-4.009705304539621551e+01
-1.964744065730351608e+01
9.004944602080348304e+00
-1.739537519518272957e+00
-3.157680245228103999e+01
-3.649144118658894342e+01
-8.500519760362788446e+00
8.870984548129518643e+00
-1.096300896236782485e+01
-3.475171767416761526e+01
-2.945518545735685834e+01
-2.976124881601717176e-01
5.427326943677265092e+00
-2.145723563617418961e+01
-3.759752964026804989e+01
-1.976684333223623113e+01
6.681575103409923777e+00
-7.912198824472280179e-02
-3.298097962949459117e+01
-4.105613583225669316e+01
-1.379954041382456431e+01
1.186504555053697807e+01
-3.210557250828347087e+00
-4.004719565837654471e+01
-4.296421058476028065e+01
-1.282389918060497180e+01
1.667349615103707094e+01
-5.912542906454867797e+00
-3.761659231273203119e+01
-4.891816021234537715e+01
-1.721543447925037640e+01
8.906944926700848697e+00
-5.022374880934960650e+00
-3.778650755210633605e+01
-5.126003289000964713e+01
-2.884654079848181141e+01
-3.874605213862513775e+00
-3.504759593662787331e+00
-2.823369046863178511e+01
-5.221961740714989730e+01
-4.390565657154346013e+01
-1.310367826380598011e+01
1.707036711052203781e+00
-1.322824639107615852e+01
-4.018382581697739653e+01
-4.725507397127280029e+01
-2.319325935383573523e+01
1.124927165094520198e+01
9.833961970049896806e+00
-2.800579617921887632e+01
-5.125753819246732235e+01
-3.379829233721411441e+01
1.208898316399603345e+01
2.527491611365044477e+01
-1.023617328355114076e+01
-5.083394998428251910e+01
-4.130559603349912123e+01
2.259814376898947152e+00
2.611710289511552219e+01
1.828689672217144624e+00
-4.642114314084013671e+01
-5.343224197391855057e+01
-1.368455852863004196e+01
2.591088439352221684e+01
1.333378974121329641e+01
-3.251576403603630183e+01
-5.677177646187027449e+01
-3.067405366595011884e+01
1.015091862971393510e+01
1.426266666560218077e+01
-3.061509740338760821e+01
-8.513582446902469769e+01
-1.076105281211345215e+02
-9.685035909595796966e+01
-1.110557852720599925e+02
-1.625575013806757170e+02
-2.205940391392806532e+02
-1.862064638058846242e+02
-7.359619095984238868e+01
5.652177911965592472e+01
9.954078276562582062e+01
6.579920193357943958e+01
1.708157403220348058e+01
2.664648816613016535e+01
6.523663718754227148e+01
6.742520867515689531e+01
-1.485459517137751595e+00
-5.668175496110964673e+01
-4.213008394271123791e+01
1.742597390346917052e+01
4.156879801116055262e+01
-1.084679774665207219e+01
-6.321210309054985999e+01
-5.039512625284297798e+01
7.217924064260322403e+00
3.350584106969147768e+01
-7.012540714586063650e+00
-5.977628827504290854e+01
-5.334816366859264036e+01
-5.002730790233306912e+00
2.154885766407348768e+01
-9.697526059616743410e+00
-4.950369141839630061e+01
-4.968899277851193119e+01
-1.021402957128245603e+01
1.000094398468045753e+01
-1.153012058489630931e+01
-4.545391932177206229e+01
-4.299670390450934576e+01
-1.228947857513302822e+01
-3.870564733037749949e+00
-2.423837682389153514e+01
-4.272956787820003655e+01
-3.493654564772326410e+01
-1.329535923383540563e+01
-1.177144815845280412e+01
-3.001994802114607452e+01
-4.690237601984429006e+01
-3.454641094053614836e+01
-1.447105756172516067e+01
-1.194802931242749189e+01
-4.198235753970893569e+01
-5.891624685876853817e+01
-3.980436775158641183e+01
-1.089994788064020703e+01
-1.823821353617277552e+01
-5.254038711419460128e+01
-7.047831182383964688e+01
-4.656803727791122327e+01
-1.096273613093621080e+01
-1.763280325563139073e+01
-6.168946229906237733e+01
-7.980015598735343474e+01
-5.584775871113838264e+01
-1.772053398559454962e+01
-1.552621284137311264e+01
-5.712244692666060075e+01
-8.545261195557151268e+01
-6.227350785400389555e+01
-1.838730284647493463e+01
-1.191877270652768850e+01
-4.920343151667566417e+01
-7.907722974570516783e+01
-6.757265690881909848e+01
-2.502037397711177391e+01
-8.824362481432229899e+00
-3.384111517014092385e+01
-6.475661555533913827e+01
-6.090064594292198308e+01
-2.549568338583485172e+01
-4.743986394820514513e-02
-8.310490509342603360e+00
-3.695982620383290396e+01
-4.694339912974245976e+01
-2.576074779477245613e+01
9.640530727300632208e+00
1.794085986413194789e+01
-9.108074890751854724e+00
-3.780560118134886238e+01
-2.629351170958617701e+01
1.202506330983272953e+01
3.348501200346847639e+01
9.090619292898441728e+00
-3.077579143525672123e+01
-3.265396266077323872e+01
9.855800749572551922e+00
4.110147087480977035e+01
2.033982662770727146e+01
-3.109094946531282488e+01
-3.800416176904241894e+01
7.333277846543386325e+00
4.295763084520861241e+01
1.530078984180905444e+01
-3.280266453308617258e+01
-3.948879006539814185e+01
3.819983865344264817e+00
3.976605395005925914e+01
1.286323547233613240e+01
-3.378772505669415693e+01
-3.740429849979518906e+01
7.829118988863609907e+00
3.388496504435742196e+01
4.104343593688117409e+00
-3.187570778953568507e+01
-2.513003912313696020e+01
9.250050793576034991e+00
2.131861966887649373e+01
-6.018996276170994086e+00
-3.301482523466975039e+01
-1.584027619792129826e+01
1.470461482283539745e+01
8.583100074108536148e+00
-1.914419739951063804e+01
-2.938505813858744276e+01
-3.055324234755081303e+00
1.591043351773869929e+01
-5.663587030306301839e-01
-2.602277938420990466e+01
-2.539723807717776793e+01
5.880825983490350239e+00
1.595396329033841987e+01
-7.505495565548557124e+00
-3.197676667247981896e+01
-2.257332813214987155e+01
6.293177394622620824e+00
1.442843026082615410e+01
-1.312411871973729482e+01
-3.321292887739755173e+01
-1.836086067105915376e+01
7.535887651358893713e+00
8.444874040808340254e+00
-1.311430254409685858e+01
-2.795221844106091069e+01
-1.996766043956997549e+01
1.365046252783613245e-01
5.572918110018152404e-01
-1.206635234597801265e+01
-2.036439621425067514e+01
-1.929682726242170787e+01
-1.032009938313255226e+01
-6.352994829170170554e+00
-8.322164914105014688e+00
-1.132446201909264438e+01
-1.801870528005483152e+01
-1.955752352073625389e+01
-1.520696203330204277e+01
-3.607562536043593671e+00
-3.030456619161165488e+00
-1.975454213754582256e+01
-2.815165836076126027e+01
-2.086932761092039001e+01
-2.539413461335354505e+00
4.556261763064489156e-01
-1.629258272648108274e+01
-3.512850239246557038e+01
-2.631309023362404176e+01
-2.153340661691306668e+00
4.661476708851489903e+00
-1.673566407842758252e+01
-3.446520706669362255e+01
-2.781079333781999452e+01
-4.602894805444872617e+00
2.057485548243875417e+00
-1.550133354768795080e+01
-2.635533215963529940e+01
-2.413008758417705124e+01
-1.013481736105949693e+01
-8.781523420238331212e+00
-1.515441835034399531e+01
-2.215277010697209903e+01
-1.868090384698228590e+01
-1.535906845614089455e+01
-1.626681660037076327e+01
-1.712518278441848807e+01
-1.499404318773774669e+01
-1.454614810134973979e+01
-2.273364210228111659e+01
-3.014427920730022947e+01
-2.342374566443493933e+01
-9.193311962611756982e+00
-7.341854637815787399e+00
-2.710663460864310537e+01
-4.103647822100739262e+01
-2.847790634300458024e+01
-1.057932272899760306e+01
-1.089835542626070719e+01
-3.413041039525862175e+01
-5.304885053316934318e+01
-3.518667224896350376e+01
-9.972010403637147746e+00
-5.818257970594930661e+00
-2.839810956792368302e+01
-4.527483039677223076e+01
-2.920537423739784089e+01
-5.964210998118941731e+00
9.743330251919880558e-01
-2.024268596540167664e+01
-3.604644594761680310e+01
-2.338733750459632077e+01
-5.085631938749751058e+00
-3.448072906945465199e+00
-1.325473064794061173e+01
-2.284026241347699226e+01
-1.723625418836254752e+01
-1.030633653458167132e+01
-1.295087231911163173e+01
-2.067807327146886109e+01
-1.384919473149660085e+01
-9.201793548926284316e+00
-1.372332084331251423e+01
-2.557534009029611255e+01
-2.189449690645576396e+01
-4.338384961843771315e+00
-6.906908092762457096e-01
-1.620546550633111593e+01
-3.503406956793516258e+01
-2.918949801243819664e+01
-1.298111167153162882e+01
-7.756167699969960694e+00
-4.077603775783909867e+01
-9.032667065395726524e+01
-1.189026844322593064e+02
-1.263881144757934862e+02
-1.445399464748133482e+02
-1.855918206835853255e+02
-1.862873852115954207e+02
-1.249364066446251513e+02
-1.198901642938394652e+01
8.036614878018973229e+01
8.548863309977724612e+01
5.111237040790839359e+01
2.453206105818027183e+01
3.768895152317413988e+01
4.843256775227841615e+01
1.961114988905220358e+01
-1.919091978414035893e+01
-3.162898282182075960e+01
-8.563964444003907772e+00
9.402631096088958529e+00
-3.334752991888597862e+00
-2.397219594406310961e+01
-3.091238754323872939e+01
-1.532813887668598873e+01
-3.881345057052855374e+00
-1.021077617530857751e+01
-2.612884846695151708e+01
-2.814514503470081408e+01
-1.809739448581905208e+01
-1.799396966994662606e+01
-1.755955859355216475e+01
-2.108486510161526795e+01
-2.100571251180576837e+01
-1.946996656390977520e+01
-2.362776982826075312e+01
-2.702762345247761644e+01
-1.939370954193746499e+01
-1.921760131194962540e+01
-2.390057509692578819e+01
-2.725831667622622945e+01
-2.816772172845546152e+01
-2.067563249901994027e+01
-2.066793700492485542e+01
-2.908514815955215482e+01
-2.856221614615068560e+01
-2.736322304003957839e+01
-2.390421752652429888e+01
-2.773794825229732908e+01
-3.519179618615010696e+01
-3.045765563818653732e+01
-2.055469778086155586e+01
-2.892800779816463219e+01
-4.707592084380195274e+01
-4.622411509620900461e+01
-2.676217946045025897e+01
-1.449430378681467957e+01
-3.202356897962684457e+01
-6.590753554958230609e+01
-6.477481796701876249e+01
-2.658857054603939574e+01
-9.397714306121134342e+00
-3.826086963432717880e+01
-7.980651931715057401e+01
-7.830285188997277146e+01
-2.968378942070188131e+01
-6.061781618255765558e+00
-3.752861305751051191e+01
-8.469655945258259067e+01
-7.788479166869224457e+01
-2.692920828820992085e+01
-7.032907626872216822e-01
-3.819397954816859198e+01
-8.477460113193542668e+01
-7.321386705258886707e+01
-2.415900622130682507e+01
-3.884936275568188435e+00
-3.351278367377353362e+01
-6.406441923530502436e+01
-5.251177825512151998e+01
-1.733978066764440484e+01
-4.887206836574463864e+00
-2.300981099215395531e+01
-3.242338977344900997e+01
-2.102250787187246672e+01
-7.028559387859486307e+00
-9.756149689161633276e+00
-1.907465201016843181e+01
-6.998429952362430484e+00
1.012118368506921406e+01
-1.932664207917986765e+00
-2.304544884303954078e+01
-1.895275218593569733e+01
1.169731744813053176e+01
2.866537132290288170e+01
1.634323553942094387e+00
-3.504514574055367859e+01
-2.417490522167417311e+01
2.379520293148708987e+01
3.942679636723277525e+01
-1.438316711764213718e+00
-4.412429601034857996e+01
-2.730817687515962788e+01
2.585226599062236730e+01
4.254312375646371436e+01
-9.243814856065964980e-01
-4.376816975194618919e+01
-2.878490953376591932e+01
2.416440725071412032e+01
3.537753530268206958e+01
-2.862998502432839931e+00
-3.898101267615736276e+01
-2.052149161879078321e+01
1.452871512475361904e+01
1.577087407288198229e+01
-9.055705674966295859e+00
-2.192568157804016593e+01
-1.309471300165805197e+01
5.552980680149871340e+00
-2.461008832472486585e+00
-1.465542831791722556e+01
-5.916716592935536312e+00
1.615183980908051042e+00
-2.243927441416029289e+00
-2.064191871843308590e+01
-2.101070004382757617e+01
4.907639624923868737e+00
1.222610184631222019e+01
-9.235068159697640056e+00
-3.161566609452801302e+01
-2.383469384976609362e+01
1.080646356238154482e+01
1.985573575513209477e+01
-1.012746552565788782e+01
-3.795377720271545030e+01
-2.564844607536949894e+01
1.216110856494720416e+01
2.200151975210371447e+01
-9.908623998986131554e+00
-3.560490531675669956e+01
-2.534409862033304961e+01
5.482768081520882575e+00
1.400760466496862655e+01
-9.336189148278632999e+00
-2.778178564211700063e+01
-2.266423987478214030e+01
-1.278249804265916056e+00
-2.042360385573402493e+00
-1.116667358626103024e+01
-1.813194092976954153e+01
-1.541575886064921086e+01
-1.087032262390291315e+01
-1.198099080571081743e+01
-1.340687394481961903e+01
-9.473595518577534236e+00
-9.324032781876825382e+00
-1.192864156877945270e+01
-2.255492460440037306e+01
-2.186024943208523652e+01
-1.151911722830816842e+01
-4.555974963396926647e+00
-1.080673419641740196e+01
-2.544439747611393798e+01
-2.613463673162212686e+01
-1.000745357148218417e+01
9.436571520877338193e-01
-8.772214136195145784e+00
-2.397666107219662379e+01
-2.911412138454810261e+01
-1.652537378469749640e+01
-2.910826093280667326e+00
-3.508901187328202109e+00
-1.930588762080423493e+01
-3.173319396120871261e+01
-2.406363912927628945e+01
-6.947774896481972995e+00
-1.106223464433947923e+00
-1.400708753425148068e+01
-2.778226594919532033e+01
-2.810820010531922364e+01
-1.471793260121662783e+01
-3.891472944469851036e+00
-7.221809560312252962e+00
-2.245783030133346259e+01
-3.389126080664569685e+01
-2.787194483093830044e+01
-1.851199612558475494e+01
-1.163569587731028854e+01
-1.445370201118364406e+01
-2.638055721266560383e+01
-3.882805184864901804e+01
-3.458635172417293546e+01
-2.461621241205447674e+01
-1.154374306021318475e+01
-1.768082004990920808e+01
-4.052883375221058770e+01
-5.004736017021385663e+01
-2.877941358032263963e+01
2.220983576209053290e+00
1.276041743082074298e+00
-3.005626090523589866e+01
-5.906394284944634165e+01
-3.511004877160031867e+01
9.445107171244574218e+00
2.063675809272748651e+01
-1.991753187461230468e+01
-5.823366560664065616e+01
-4.057986993465588199e+01
1.214868184606692481e+01
3.181966579697306940e+01
-3.915592644224722640e+00
-5.464977214796234506e+01
-5.005457993448250420e+01
-1.896059978850596073e+00
3.360136633086332125e+01
3.355073201604475752e+00
-4.649347659756490003e+01
-5.719958333631224434e+01
-1.336418018134729024e+01
2.375276681861970474e+01
1.423483899576016043e+01
-2.996596320698257543e+01
-5.511082626900815029e+01
-2.805294355972599973e+01
8.041580286046178472e+00
8.731924603536816321e+00
-3.059696727528099558e+01
-7.849877465130906273e+01
-9.381783078160975720e+01
-9.236699149953622623e+01
-1.129500018355151951e+02
-1.671711946880205915e+02
-2.084025871829201719e+02
-1.694729292511625545e+02
-7.888650286643175491e+01
2.676512768072597837e+01
7.936863371829704761e+01
7.144367681880039811e+01
4.162580393419450075e+01
3.147002606088431520e+01
4.561395164378995304e+01
4.368997120156447522e+01
8.376772382295241570e+00
-2.451066766685593379e+01
-2.965234766007235123e+01
-6.031376443229442330e+00
1.128228232659027697e+01
-6.531795939914748494e+00
-2.909020384935082504e+01
-3.420878981125389373e+01
-1.083967801514939922e+01
-9.191112712252312855e-01
-7.090102447409289077e+00
-3.076881388930432237e+01
-3.050012253333407131e+01
-2.015190458699954235e+01
-8.331040320448035885e+00
-1.394921075192601378e+01
-2.478274172157724209e+01
-2.654928246821776483e+01
-2.139359635856083486e+01
-1.764441459258111422e+01
-2.287232902050994809e+01
-2.326539847027297725e+01
-2.336125097297200170e+01
-1.816658699969438828e+01
-2.254885809846433986e+01
-3.318215299770932347e+01
-3.096161095128679364e+01
-1.933024562066934138e+01
-1.401344946362623745e+01
-2.902741986794252327e+01
-4.222825512666756964e+01
-3.741483870496244180e+01
-1.397557471281452024e+01
-1.193916584936644654e+01
-3.315339091190740817e+01
-4.874166050165644748e+01
-4.154582045667762458e+01
-2.204827414702745259e+01
-1.583574378089619650e+01
-3.750105196322738976e+01
-6.100730974189778522e+01
-5.241576825693182684e+01
-2.590944216313124571e+01
-1.897230713508588806e+01
-4.541324698165050222e+01
-6.785825458409304645e+01
-5.291391662197622026e+01
-2.699010667844602906e+01
-2.668450937031121128e+01
-5.540687474344571939e+01
-7.255032158788743857e+01
-5.214315332728031649e+01
-2.613165134628138730e+01
-3.433445587965148604e+01
-5.693316127311232577e+01
-6.759600673841964635e+01
-3.938457450820138916e+01
-2.367356900277189879e+01
-3.753527090948101375e+01
-6.157009503224792724e+01
-5.562114039839406843e+01
-2.666445021849853703e+01
-1.227034464520890999e+01
-3.356454936702193947e+01
-5.256259487657679585e+01
-3.727130601132261489e+01
-6.077207604806949881e+00
1.465935083680472317e+00
-2.384580746765642800e+01
-3.750072591997095373e+01
-1.915784425756683973e+01
8.906561275650181742e+00
1.133107734080723183e+01
-1.536629068466500136e+01
-2.688120718831146760e+01
-7.813466140046956276e+00
1.392003516465595148e+01
9.737229108019993973e+00
-7.923210566714587344e+00
-1.534588777166655582e+01
-2.632530224091422788e+00
1.181678053594905009e+01
7.667509196132209937e+00
-7.140298427405633142e+00
-1.151214525877984940e+01
-7.953750141656218409e-01
3.394797775406291240e+00
-6.136587349553366266e-01
-5.258543386868020697e+00
-3.458277726900762961e+00
-3.204490069230441218e+00
-4.174444049397082246e+00
-2.984273277619148956e+00
-1.763359440159414593e+00
-3.047998049229336814e+00
-5.475388091816097536e+00
-7.023926059383358123e+00
-4.857211337038640053e+00
-9.512734735218316695e-01
-3.329903073144860226e+00
-1.201576108495534356e+01
-7.161073957383055522e+00
-4.387767041367509613e+00
-3.553327370939566077e+00
-8.214511645630937053e+00
-1.319374529509875948e+01
-3.757210999022214004e+00
-4.154614799231666766e-01
-5.516930673002308438e+00
-1.452842038931948032e+01
-1.155293876885148130e+01
-7.809046179659505371e-02
5.836379206137005227e+00
-1.400685272465917208e+01
-2.641186960245217463e+01
-1.399814684148304167e+01
8.909390145691714835e+00
7.185672939839737872e+00
-1.862923980101036037e+01
-3.291110352674729000e+01
-1.086978411798883393e+01
1.312323947049133288e+01
8.876902499400822322e+00
-2.382363874523809244e+01
-3.456000598205319818e+01
-1.485426423772096172e+01
1.196437043699916281e+01
5.781045202740004996e+00
-2.532157472195896730e+01
-3.676343415134280690e+01
-1.473555772623881488e+01
8.754054928098621957e+00
5.340677596094617563e+00
-1.954844145199354344e+01
-3.187649403047605290e+01
-1.705906930082111472e+01
1.897403725318400847e+00
1.293975339295252214e+00
-1.585502152484892591e+01
-2.898633186123656813e+01
-1.982672020528519852e+01
-7.253352073114287535e+00
-5.699757672152447441e+00
-1.250501140209775741e+01
-2.350346588998207054e+01
-2.634960880719951248e+01
-1.777578371653715550e+01
-6.371220801187544858e+00
-5.406670067238888322e+00
-1.772291722388489532e+01
-2.734361590375167950e+01
-2.667482627452559996e+01
-7.953522746764422280e+00
-6.450169178300437789e-01
-1.350582488052120667e+01
-3.127390632867806630e+01
-2.936280165782021712e+01
-1.004244188550325667e+01
2.072026339592934807e+00
-1.116869230198054730e+01
-2.786249325183788272e+01
-3.100580177470553522e+01
-1.225647865853671625e+01
-8.089477100780280594e+00
-1.057845764944931766e+01
-2.760206790425414169e+01
-2.767027839539326095e+01
-2.283561303987703894e+01
-1.678536439389239021e+01
-1.437346944233361157e+01
-1.709737045739324302e+01
-2.226218457892811742e+01
-3.235114997350731869e+01
-3.347381949952089997e+01
-2.519276636536556424e+01
-1.309476762849901377e+01
-1.829969302763280936e+01
-3.966432637657478466e+01
-4.670159942230533545e+01
-2.281053080663107835e+01
8.477955060812458754e-01
-4.588002274464060726e+00
-3.918020423404575325e+01
-5.263816853741816004e+01
-2.112932070659798711e+01
1.398319193101267288e+01
8.130779758787209488e+00
-3.232972632972720817e+01
-4.773333700608375096e+01
-2.105807854165775694e+01
2.212226554792629685e+01
1.449188413083610349e+01
-2.711998538631481637e+01
-4.733827301294665091e+01
-2.935704082830462980e+01
1.328757069858500373e+01
1.074424064982245675e+01
-1.555690667583207976e+01
-4.213501245678325802e+01
-2.954750451587298343e+01
-6.926353411581024133e+00
8.883568048232817205e+00
-7.780711036318216145e+00
-2.826491629818842455e+01
-3.695360442467153916e+01
-2.240350351555984787e+01
-1.133225804448611740e+01
-7.850667393097219282e+00
-3.412011882306608612e+01
-7.787959809752959472e+01
-1.119638366527737219e+02
-1.234925038192661191e+02
-1.322369593445152702e+02
-1.558445090723141391e+02
-1.728577300538107977e+02
-1.431032289085664502e+02
-3.576459664103104785e+01
8.182055762161650136e+01
1.023392343860513876e+02
5.014076272060986383e+01
1.892948581268278641e-01
1.377343763813644628e+01
5.988182354388246154e+01
4.982011777482463089e+01
-1.836482702510322795e+01
-6.524144962195370567e+01
-3.225542018135595868e+01
2.562737646653996393e+01
3.014953940390166665e+01
-3.024218025887463668e+01
-6.907551869595317839e+01
-3.689933941407831242e+01
1.784361295654952784e+01
2.333169311275248248e+01
-2.345751829548750678e+01
-5.949166038812441570e+01
-3.514433188314148993e+01
5.103503113737236419e+00
8.796501263335045451e+00
-2.872364182515611830e+01
-4.879863488971206209e+01
-3.299080151631867608e+01
-5.724671109744989828e+00
-9.928874653532561823e+00
-2.222541758495016140e+01
-3.385595318990952762e+01
-2.428813803342389832e+01
-1.696000903245128200e+01
-2.476860246648144681e+01
-2.554597772410649981e+01
-1.945559862800424611e+01
-1.533377203625877172e+01
-2.942440030318099886e+01
-4.274227044152819843e+01
-2.684545923700754955e+01
-9.818816249481914227e+00
-1.931286099783097754e+01
-3.851261062758364062e+01
-4.956635742345610396e+01
-3.224384759092588126e+01
-1.130058101380716629e+01
-1.871448696014847002e+01
-4.904482536065638953e+01
-6.009106378744941424e+01
-3.326901836504930543e+01
-1.931608799585292857e+01
-2.988750581362728909e+01
-5.801723762627798919e+01
-5.649014147427860877e+01
-3.718812314171495359e+01
-2.943861565738294672e+01
-4.187906380847270071e+01
-5.440049446350918316e+01
-5.017455152960953768e+01
-3.106677003820136207e+01
-4.158770997693623173e+01
-5.263056243508112431e+01
-5.410270858395048776e+01
-3.445641010685667283e+01
-2.549200772715846597e+01
-4.823581535917038821e+01
-5.850533356946042574e+01
-4.212714127600208514e+01
-1.803774235305148821e+01
-2.302193913656369517e+01
-4.859822035407454166e+01
-5.601844486965475767e+01
-1.885092982594481725e+01
5.568649763994296897e+00
-1.154066568520053160e+01
-4.681270599230770557e+01
-4.256544104039700471e+01
1.724880593549247720e+00
2.656632095919298919e+01
-1.075642496699372330e+01
-4.413851021779702677e+01
-2.493048095643268880e+01
2.491700836246671358e+01
3.124016214349411058e+01
-1.005540440738226771e+01
-4.219616298615306249e+01
-1.540587592804543426e+01
3.559577836798796824e+01
2.708023827095718161e+01
-2.381569524542000238e+01
-4.223344546653696341e+01
-5.463564886797213305e+00
3.770225714857352983e+01
1.763393029629490982e+01
-2.612817270205532694e+01
-4.135627070904988756e+01
2.945982706532925377e+00
3.190669145836056941e+01
9.113781587222025138e+00
-3.171763102550423952e+01
-3.063215516791666815e+01
9.272053935194270124e+00
2.218079306279415874e+01
-1.155057515413962843e+00
-2.676455583238760738e+01
-1.997973457641069572e+01
5.158327401721856553e+00
7.048543343468393729e+00
-9.321628949446376211e+00
-1.733375286811231319e+01
-8.807821582747319411e+00
-9.393963238288809137e-02
-8.636028095908457658e+00
-1.248786870650226533e+01
-1.225957279806720646e+00
5.500723195057641846e-01
-1.255045729545883759e+01
-2.338271803266344762e+01
-8.954230132268831355e+00
1.374899090078804242e+01
4.733582762024450274e-01
-2.516790109077929216e+01
-3.105816260765866943e+01
-5.158026210569613745e+00
1.588287997990176947e+01
-4.238997193349005599e-01
-3.067511302627138292e+01
-3.087815545934272521e+01
-3.051483035659974252e-01
1.672696039989114070e+01
-5.072156686131142678e+00
-3.255431971470483177e+01
-2.706668273421161075e+01
3.222796704457560057e+00
1.192339483312436066e+01
-1.314102653202908044e+01
-2.682690286587159889e+01
-1.793082646371516731e+01
-1.462126141560634807e+00
-5.576309787206684021e+00
-1.664207552639573251e+01
-1.740089502004071420e+01
-7.276828734227059670e+00
-8.186759104059099457e+00
-1.900589306521709076e+01
-2.079643697483998110e+01
-5.866524239642503247e+00
-2.307946096053177687e+00
-2.341267486636395390e+01
-3.486432372602225627e+01
-1.292050401557314032e+01
7.207311052689498787e+00
-5.326806576544396599e+00
-4.029249459648705312e+01
-4.025968003615722779e+01
-5.051940024990441813e+00
1.827048639196918245e+01
-1.364900303479539900e+01
-5.108805315265203717e+01
-3.710101641731741040e+01
1.390266164845880503e+01
2.078771550748299646e+01
-2.808668624476733910e+01
-6.484981482701215327e+01
-2.876126948338775335e+01
2.658042477195041542e+01
1.693844504620753710e+01
-4.719112496962237202e+01
-6.717859158469468639e+01
-8.996555985431871960e+00
4.304322291191108718e+01
6.816877794094601484e+00
-6.920401022623011045e+01
-6.886039867241223078e+01
4.858624567727661159e+00
4.788016022248482528e+01
-1.091869185239354856e+01
-8.243669811519725954e+01
-6.419460908477928740e+01
1.317090782979756725e+01
3.920138463410449248e+01
-3.183158932611680214e+01
-9.365207469017396136e+01
-5.591833722884017277e+01
2.036284209946680335e+01
3.321319665469167148e+01
-4.068395102990366752e+01
-7.901560775079711618e+01
-3.474352470398102355e+01
2.492255293438437036e+01
2.118577525737577716e+01
-4.031163723667398102e+01
-5.931576428377901067e+01
-1.563456701391128156e+01
2.676277453252270178e+01
6.811364772107661558e+00
-3.314451404374261045e+01
-3.238699042263949224e+01
-6.030133378843570036e+00
1.183583247495369761e+01
-6.856784061547358533e+00
-3.123721979075533284e+01
-1.692452827283472061e+01
-2.229672625456981638e+00
-6.850096857308011877e+00
-2.355909110349946545e+01
-2.282974186663762595e+01
-7.074626799209459804e+00
-2.117060371173244970e+00
-2.048160856027864440e+01
-2.671976569631879528e+01
-1.559826114790583063e+01
-7.251536058782559913e+00
-2.129473681295340270e+01
-5.555196365675041648e+01
-8.379694687004946729e+01
-9.684089553404547246e+01
-1.275516479924510946e+02
-1.615810438731628551e+02
-1.864896066673656208e+02
-1.339900020380080718e+02
-5.884633838976922249e+01
2.106713323021044815e+01
5.928246242509974451e+01
7.036917448778292794e+01
6.259212970959109867e+01
4.338081091384668753e+01
2.492789753353429560e+01
1.092642186325097065e+01
5.412976438649576671e+00
-4.975740377485022847e+00
-1.601222626983230413e+01
-1.659158529618314759e+01
-9.139937541192050929e+00
-9.254561581587758212e+00
-1.544035630875071341e+01
-2.418578489889656069e+01
-2.122977410452881486e+01
-7.669374738803389491e+00
-4.821316421329535196e+00
-2.279934956140478164e+01
-3.522027706798784408e+01
-2.256246505592488560e+01
-4.292768076761491192e-01
-8.105868744008924764e+00
-3.133856381875956387e+01
-3.767776661805158511e+01
-1.704242208865073138e+01
1.353270538300037185e+00
-1.543289466981666003e+01
-3.725991362510220739e+01
-3.694722019918642530e+01
-1.336455446095954080e+01
-2.315260795622723577e+00
-2.005125202029250886e+01
-4.568723094665620721e+01
-3.629692357422652549e+01
-1.339612176649188591e+01
-7.569375290496330067e+00
-2.590996268347460330e+01
-4.271292890604517112e+01
-3.566211597222601171e+01
-1.805830380045910388e+01
-1.830860226648604083e+01
-3.348859033916009764e+01
-3.913488047909996226e+01
-3.327884447539336321e+01
-3.155734189522330269e+01
-3.517640636286806455e+01
-3.637217980293370800e+01
-3.163467017613254129e+01
-3.330951261874140812e+01
-4.623756743276165082e+01
-4.989518310066233653e+01
-3.836624679814895700e+01
-2.233149580517777366e+01
-3.358414067006459902e+01
-6.010943441354447714e+01
-6.585792354311612939e+01
-3.912397550844469407e+01
-1.485020884403736652e+01
-3.151747475156026823e+01
-6.686929610446185279e+01
-7.180858483412124826e+01
-3.744072015389617292e+01
-9.200578263223798459e+00
-2.718406290719302731e+01
-6.405564281973973095e+01
-6.542449423837105371e+01
-3.049369617854570791e+01
-4.826580373277388425e+00
-1.847292605377468178e+01
-4.693783471483479275e+01
-5.064770127070008243e+01
-1.932331742530561414e+01
1.869914357736680133e+00
-2.223293551022657688e+00
-2.282440028696019851e+01
-2.468566325954820329e+01
-1.176086972159196797e+01
-6.213187627720438977e-01
5.731507030586793228e+00
2.322874515476499813e+00
-4.692436554112952685e+00
-1.283896578109417064e+01
-6.648797233756471137e+00
2.627026347378023985e+00
1.284411727771457556e+01
3.775879174308925723e+00
-1.253810672369412060e+01
-1.747868407530706136e+01
-2.110959096840560711e+00
1.958446975441168547e+01
1.238452255756205034e+01
-1.059191136690874657e+01
-2.338582893951642916e+01
-5.775523806715415986e+00
1.593702354097918672e+01
1.556316213325050768e+01
-6.043844780011172091e+00
-2.341945932071189063e+01
-1.140476512297469647e+01
9.370102689835984933e+00
1.483831295724051103e+01
-3.332063768822667527e+00
-1.861361155651273336e+01
-1.296571182147742185e+01
-2.742401277551273608e+00
1.884003967340666108e+00
2.152246152521768430e+00
-7.590206887206527142e+00
-1.366409144720104507e+01
-1.593231519719773814e+01
-8.707333845942363482e+00
2.893735872102630502e+00
2.306333858441750095e+00
-1.227897405165067823e+01
-2.281609305503093665e+01
-1.686352857873225020e+01
2.180572933286410553e+00
1.006043807477863083e+01
-6.386368566851226447e+00
-2.524096794202873895e+01
-2.456290742456366161e+01
-3.206338332760950927e+00
1.188834074992554690e+01
2.645866729345522916e+00
-2.000705031953864577e+01
-2.832076079867863072e+01
-1.180794971459805787e+01
9.712759934602978262e+00
8.939075492752781571e+00
-1.091609096466443773e+01
-3.151217711315292291e+01
-2.090022282894657835e+01
4.070994574609142269e+00
1.360804238626635154e+01
-5.125197558240566664e+00
-3.045515617045623458e+01
-3.138920823430554563e+01
-5.499209300843873827e+00
1.434229825393305902e+01
-2.060375867037233730e-02
-2.523947295255599599e+01
-3.189321999192329216e+01
-1.438605075659730126e+01
8.868957859820202572e+00
-9.929380680046770991e-01
-2.235194459148788937e+01
-3.163657200953031179e+01
-1.483539907454149542e+01
2.119812840320112635e+00
-8.534876985881256317e+00
-2.020226666171289409e+01
-2.282794505740009328e+01
-1.058203778438959652e+01
-1.098858415013832257e+01
-1.398024522366491063e+01
-1.968201243661032152e+01
-1.436178395196099977e+01
-9.972273996841328980e+00
-1.812474874811968562e+01
-2.599314824232175880e+01
-1.888420670627428777e+01
-6.909537946366784311e+00
-4.532608211801699483e+00
-2.429751476891017603e+01
-3.266544664330726988e+01
-1.907103494657256704e+01
-2.681990850558255701e+00
-4.116131836325176430e+00
-2.455221061841493935e+01
-3.087327492897360059e+01
-2.091048695091242138e+01
-6.269992417360325199e+00
-1.189455018686792265e+01
-2.136335815731131405e+01
-2.644735077564080328e+01
-1.792498656120322664e+01
-2.096255247210194028e+01
-2.551727971064434897e+01
-1.956576408733206662e+01
-1.476037084025129609e+01
-2.002732592391268085e+01
-3.679719660024245798e+01
-4.371344912417666251e+01
-2.281389804480259897e+01
-5.513765331343764231e+00
-1.498231873003604342e+01
-5.236254184295653147e+01
-5.948148938018683651e+01
-1.972118152446502748e+01
1.524104241866784015e+01
-2.640870188387081541e+00
-4.912387312474416490e+01
-6.783374095228059275e+01
-2.195040361415246721e+01
2.956568363008457467e+01
1.515089222473170061e+01
-4.586216817150618397e+01
-6.789337000594966298e+01
-2.455973016153764377e+01
3.314071168490734465e+01
2.997313698612278188e+01
-2.476713943931395789e+01
-6.302901293524796245e+01
-3.683938163357816364e+01
1.634998205341259947e+01
3.548751036770753586e+01
-6.824542066935228135e+00
-5.269287452725878040e+01
-5.472074444373575375e+01
-7.398063151663843762e+00
3.214635962974658412e+01
1.964312049596714260e+01
-3.270718349213185405e+01
-6.765124352072790259e+01
-3.722370468880691874e+01
2.074205661169337489e+01
3.015551347577654440e+01
-3.189946749224086631e+01
-1.076678336482075906e+02
-1.260498042028572030e+02
-9.238772944538202125e+01
-8.938369552222705750e+01
-1.601739380770782759e+02
-2.403254322013324327e+02
-1.992240386701137709e+02
-4.359239363601495398e+01
9.974472607922238865e+01
1.057301743804434437e+02
2.982686694553022377e+01
-9.014111107684172453e+00
4.145593641252558115e+01
9.495864088441702222e+01
5.945024721247418142e+01
-3.161185229444592082e+01
-7.354318251846090959e+01
-2.211480205235431384e+01
3.844584060147685278e+01
2.784519395309130729e+01
-3.516736526846087685e+01
-6.790640078170305571e+01
-2.824758390498007898e+01
2.041796852730629652e+01
1.124071590671931986e+01
-3.040611349565003607e+01
-5.045851904752220918e+01
-2.955954025245372563e+01
-1.202286096125239290e+00
-1.098715715364763668e+01
-2.884205923630149115e+01
-3.150909497820105543e+01
-1.948390588863078676e+01
-1.623820349907882843e+01
-3.036395355677191077e+01
-2.918901871110221080e+01
-1.782981580655464171e+01
-7.890037518065373234e+00
-2.840472939376523343e+01
-5.052726669875227827e+01
-3.620052425128908169e+01
-7.418320490689418456e+00
1.720365487646934310e+00
-3.380137412172099687e+01
-6.035043432304590993e+01
-4.614500764331392446e+01
-7.865882001753084829e+00
6.208096138082313864e+00
-2.663169656629741056e+01
-6.666696218025886367e+01
-5.775307549017912123e+01
-1.347686151430568735e+01
1.683856939562403010e+00
-3.028169677615996846e+01
-6.640733859024882690e+01
-6.131737862604129674e+01
-2.605149885331656279e+01
-5.982919407944158330e+00
-3.109062308317706069e+01
-6.413706519765109704e+01
-6.757738595541678706e+01
-3.804555766354642543e+01
-2.219029608698419054e+01
-3.623224693957602938e+01
-5.816112978126822952e+01
-5.809780661201335761e+01
-4.272131896350028057e+01
-3.615422439213286765e+01
-4.506801581726061556e+01
-5.148238893383070547e+01
-4.602423151178620486e+01
-3.793167590741868622e+01
-3.980581596814959511e+01
-4.715890366712088166e+01
-4.593300065942570143e+01
-3.031260304959719676e+01
-2.731861004672129312e+01
-3.674754202752768606e+01
-5.089252349649511586e+01
-3.373106534871867268e+01
-4.706963328091791077e+00
-3.909489400495548050e+00
-2.296301902044320187e+01
-3.947564115333718604e+01
-2.257181279824703068e+01
1.017857363468658249e+01
1.670876530797048787e+01
-8.057908014008308584e+00
-3.292900896597480909e+01
-2.219052587612057792e+01
1.336009410727274904e+01
2.633055142861996600e+01
2.034197667735976545e+00
-2.673723699263861420e+01
-2.118827809197004086e+01
1.140350593944923396e+01
2.486184885899028174e+01
5.769325011591367236e+00
-2.594189712975281381e+01
-2.483784303706851304e+01
5.806023522008515236e+00
2.360586725161609323e+01
6.883551470478924017e+00
-2.067079807194505037e+01
-2.360808759780444532e+01
-1.930210274229708922e+00
1.203667049501329878e+01
3.152826149480792761e+00
-1.429706418985331240e+01
-1.525167742824030981e+01
8.021362600882635530e-01
6.175506454091102881e+00
-6.230140478042925700e+00
-1.354792003765739850e+01
-1.045553165599137913e+01
-1.838395455818415902e+00
-2.180887569486563926e+00
-1.477700026139740253e+01
-1.589195723458863974e+01
-1.202880437703869099e+00
5.840326283301395804e+00
-7.089068993596190360e+00
-2.026283572016389556e+01
-1.742422769205831301e+01
1.911075532480042583e+00
6.578351167891397289e+00
-7.717299882697737701e+00
-2.551171321557933780e+01
-2.228170277815798173e+01
3.162428615064333925e+00
1.301419088317486228e+01
-6.150157943817919026e+00
-2.812307323468082743e+01
-2.542538654135294252e+01
2.816242076894796664e+00
1.155684330527930470e+01
-6.827992192892453183e+00
-2.588239858518467784e+01
-2.249035635422050206e+01
-2.144816733525109598e+00
6.960339077730647972e+00
-1.084789819044228487e+01
-2.172103413063700827e+01
-1.737961421650444294e+01
-5.556356178863617323e+00
-6.065354674820798708e-01
-1.340700846862177009e+01
-1.825941107829279275e+01
-1.037087884205515920e+01
-2.647276585025171602e+00
-1.101604318905277147e+01
-1.461895404258099695e+01
-1.212309696080972721e+01
-7.683851151184948769e+00
-1.141261548711257312e+01
-2.098987460827442675e+01
-1.979719872681469894e+01
-1.030456315289301550e+01
-2.654989755164891996e+00
-1.361942468535108475e+01
-2.595716208943066405e+01
-2.212284256353817824e+01
-4.823664603630115622e+00
-2.815563435652973290e+00
-1.942362915834768344e+01
-2.464061566540028991e+01
-1.646249457548968564e+01
-1.822823219806853245e+00
-1.221256940094998811e+01
-2.573336957017486526e+01
-2.814939034439770893e+01
-7.029766272804886640e+00
-2.061439698270162602e+00
-1.923397036587645914e+01
-3.856787915389347887e+01
-2.854003613958741070e+01
-2.620611991388304585e+00
2.387832158973758112e+00
-3.102592500944552611e+01
-4.968544756150600250e+01
-2.900558873474412280e+01
5.710869790486927222e+00
3.528456108919917344e+00
-3.438088555837981630e+01
-6.467516133329294803e+01
-3.899436264199844970e+01
7.477979756540443113e+00
7.183836097068479809e+00
-3.480528201211939177e+01
-7.054784472034613430e+01
-4.959131284172203635e+01
3.848655520817074294e+00
1.923947050641172041e+01
-2.340472157216096960e+01
-6.067558463459985774e+01
-5.240275878872151338e+01
-2.352739506155253846e+00
2.333888893103767970e+01
-2.279391403802524696e+00
-4.978277913221479878e+01
-5.500183766997979262e+01
-1.406963155019973577e+01
2.880531693289849926e+01
2.171518120145475805e+01
-2.464063380070234999e+01
-5.978344578260030318e+01
-3.608143246627014378e+01
1.845215240529874734e+01
3.877255911946335232e+01
-4.186219513854877228e+00
-6.292027964722770150e+01
-5.873298723192075954e+01
4.956366343141020536e+00
5.224386530614333424e+01
1.504002493554855135e+01
-5.806511538649706239e+01
-7.912921093607965872e+01
-1.139710057854036940e+01
5.168689330667013593e+01
2.302220416356848887e+01
-7.052842885749220159e+01
-1.174441281977250924e+02
-7.957709839134309959e+01
-4.148466443532752379e+01
-9.935138580512165163e+01
-2.148471385765386685e+02
-2.569501325955303059e+02
-1.490295698182399633e+02
-5.952587963459010645e+00
6.292581675377140016e+01
3.411643036635730653e+01
2.154283948501124613e+01
5.713093937594786809e+01
8.996061993343194274e+01
5.663991569484076649e+01
-1.177254230993449191e+01
-3.603590048172627291e+01
-6.269807666948342684e-01
2.636133558268076982e+01
-6.762865637182699174e+00
-4.110183442890950545e+01
-3.512344021279793083e+01
7.728989512207585122e+00
6.803591675816328177e+00
-3.106440648881181232e+01
-4.963914190870149667e+01
-1.429966048295877989e+01
1.855746684265572455e+01
-2.403180021300972413e+00
-5.767714018915172147e+01
-5.972915599527297559e+01
-4.115698340142120770e+00
3.287858056288195030e+01
-9.373120717833202775e+00
-7.114121487380249675e+01
-6.524292657776916826e+01
-3.224646222526281192e-01
3.387033401707739699e+01
-1.427924440129571693e+01
-7.626564128950830934e+01
-6.775448132375827015e+01
-2.701143184785633089e+00
2.704501879548057985e+01
-1.961639662300242648e+01
-7.257706951990125788e+01
-6.252303756575036431e+01
-1.049068579007487934e+01
9.715998766460632652e+00
-2.439912113095821411e+01
-5.996263709328437130e+01
-5.291171858191506772e+01
-2.021151530878096381e+01
-1.240914005484560256e+01
-3.162184803760680296e+01
-4.465059514380686068e+01
-4.306151757845491801e+01
-3.856690178831335203e+01
-3.538707280162685720e+01
-3.420520284547654200e+01
-3.387833132907756806e+01
-3.889940561034546818e+01
-5.210234206747977481e+01
-5.457697244711390994e+01
-4.146212440002958033e+01
-3.168367251338607815e+01
-3.780126785351114194e+01
-5.941558376759471116e+01
-6.005870054318680928e+01
-3.591053028249524459e+01
-2.219471985954969995e+01
-4.136698902083866614e+01
-6.889219643777852298e+01
-5.647037069244016294e+01
-2.311268306993394717e+01
-1.460915495712947987e+01
-4.574459897764984362e+01
-6.612573419520241202e+01
-4.199926361041131884e+01
-1.919452689096562137e-01
-7.811499552192064044e+00
-4.676522627935437271e+01
-5.729945883688419173e+01
-1.554455746122205184e+01
2.621957317929661002e+01
1.638855783268458710e+00
-4.687767884920693007e+01
-4.881483936143172997e+01
5.652167331358324276e+00
4.564687880269883635e+01
1.253037628618722543e+01
-4.559364154769433952e+01
-4.634771601579417677e+01
1.643722476846060587e+01
5.186503555472475568e+01
1.638939472742388759e+01
-4.396863327317886672e+01
-4.433516111868323861e+01
1.275120369107968088e+01
4.705680599375889983e+01
1.544144178592679495e+01
-3.261701386532350710e+01
-4.171183219011270182e+01
-1.202664413061730886e-01
3.361856945666156804e+01
1.912514180921304430e+01
-2.290458237369773187e+01
-3.659495483441581598e+01
-1.111725195674403111e+01
1.329169785239357893e+01
1.392893456872190505e+01
-4.233287424459985182e+00
-2.461063938663238915e+01
-2.357773443029853055e+01
-2.488249433436218627e+00
1.419912672986030344e+01
7.361485330485610490e+00
-9.668810612227449752e+00
-2.758488232399254159e+01
-1.786576870817703622e+01
5.580084120160633709e+00
1.484404418742232323e+01
-5.192429767473070612e+00
-2.900770760373456270e+01
-2.907805260615664622e+01
8.896139141049594912e-01
1.149985979007879422e+01
-5.018908127206833214e+00
-2.486803079824537477e+01
-2.071556924198546312e+01
-4.547187922868555887e+00
5.008146654839938927e-01
-1.033923919771689626e+01
-1.991014830222048815e+01
-8.297331298691993595e+00
-2.865455635535469892e+00
-1.048126350654364991e+01
-2.206480723445796954e+01
-1.153574436570833228e+01
4.065527157415157689e+00
6.442836756149751487e+00
-2.249086271985284569e+01
-3.489625173597853092e+01
-1.149423147411346591e+01
2.285248495503082466e+01
1.507086318148761528e+01
-2.993428270302464611e+01
-4.814590348923643859e+01
-1.880724986953086031e+01
3.081629186980320156e+01
2.510100394900891274e+01
-2.910851865653298276e+01
-6.010775123739744430e+01
-2.632391206641596426e+01
2.464351481378673725e+01
2.785874270866178293e+01
-1.910535019799747758e+01
-5.656500541696804163e+01
-3.707913357634785712e+01
9.062008332262628585e+00
2.915991564790422430e+01
-5.790676049999038177e+00
-4.594878248694620737e+01
-4.633987967749798997e+01
-1.197111753122749001e+01
1.953071644532495199e+01
9.132302346257590742e+00
-2.774502685887232545e+01
-4.997483044217426595e+01
-3.608045687134941915e+01
2.958659141528984016e+00
1.966262649675076091e+01
-4.969654296119085934e+00
-4.966028343105604392e+01
-5.204451954918128820e+01
-2.113181471476205076e+01
1.813183524018499071e+01
8.174998733730118872e+00
-3.948345050191624495e+01
-6.664758098388386998e+01
-3.873456855923948439e+01
8.386609684934251518e+00
1.308103219255047378e+01
-2.970826749861932470e+01
-7.023861291601629375e+01
-5.572038679134335837e+01
-4.861007204484816491e+00
1.341771134382222286e+01
-1.675847344271032213e+01
-5.351661553981830366e+01
-5.045341085607378062e+01
-1.862049364471266344e+01
1.194460163143383769e+00
-4.747792621774444832e+00
-2.230631962167593940e+01
-3.204375094717008210e+01
-2.793998621620063005e+01
-1.813661396611606591e+01
-2.051864301944449576e+00
8.594150861989344747e+00
-6.810919163300291679e+00
-3.550855771593894872e+01
-4.158723865673871245e+01
-1.141315079334278515e+01
2.512437738670793053e+01
1.722635430234910459e+01
-3.801208210961036826e+01
-6.928641418340293967e+01
-2.889826175793540131e+01
3.669640364228327201e+01
3.971001699004693819e+01
-3.280285746816483083e+01
-7.938872470426113637e+01
-4.574462346546944502e+01
3.742497795302303842e+01
4.075361437634927597e+01
-3.367913576036411882e+01
-1.096695583117024739e+02
-1.058357441771210716e+02
-5.950136375123882004e+01
-7.734481998973126338e+01
-1.738693071204354794e+02
-2.453405594708047204e+02
-1.833320716877605037e+02
-5.238294626829355138e+01
5.598723822829526142e+01
7.642419622880774455e+01
4.013691322637968995e+01
4.007108330148968633e+01
5.771370991564809572e+01
6.173047155791925888e+01
3.642996029902215582e+01
-5.845520947610560292e+00
-2.033217066194761813e+01
-1.460452296957115337e+01
-3.585981056362760544e+00
-2.299717947738618484e+00
-4.383537097680377137e+00
-1.479581073336090746e+01
-2.940286259024380300e+01
-3.046923627991822414e+01
-1.478813018448087391e+01
7.644025740233434618e+00
-8.674012088720564062e-01
-3.014617312487978040e+01
-4.928738004099619729e+01
-2.833640782294818905e+01
6.821516440954718874e+00
8.261072077486193876e+00
-3.062413018957996158e+01
-5.378847460090639032e+01
-3.877585880694348219e+01
-4.352394525723354946e+00
7.280880384909312220e+00
-2.415507903136063561e+01
-5.187864555487141160e+01
-4.484572729136051095e+01
-1.688586536536557503e+01
-4.294233492898594129e+00
-2.237389621730800826e+01
-3.846531341423892769e+01
-3.924544873432888181e+01
-3.339513864521745035e+01
-2.604767070078643343e+01
-2.202153716636388481e+01
-2.146251004343895374e+01
-2.903284778367179442e+01
-4.650110292338490581e+01
-5.543304372349017228e+01
-3.212424054191333056e+01
-4.301683511380682390e+00
-1.626434358422150694e+01
-5.707680005261091338e+01
-7.913222281741329311e+01
-4.579667552796339436e+01
5.821453240751263136e-01
-5.021736756613496944e+00
-6.398539540537270653e+01
-9.856340506570600724e+01
-6.368362342127105080e+01
-1.542100955098043291e-01
3.840145290363477404e+00
-5.613878763525278970e+01
-1.010830398031439330e+02
-6.984548434035697539e+01
-7.366188362718348870e+00
8.818958443251943891e+00
-4.393545796457056696e+01
-9.554836558883629039e+01
-7.376232878729720710e+01
-9.769486295856754765e+00
1.342083742421571735e+01
-2.832563824117641360e+01
-7.612627361490922340e+01
-6.811725743691620494e+01
-1.384612248199965023e+01
1.717393841566241619e+01
-2.843892578451572284e+00
-4.747264454066276329e+01
-4.711904708732735969e+01
-1.497203701184869296e+01
2.104059990564675431e+01
1.507827828844983742e+01
-1.658626001800380578e+01
-3.029538733946349893e+01
-1.340049070394403152e+01
1.645461920533274025e+01
2.333481933626917026e+01
-2.709580504463392270e+00
-2.686901753259477132e+01
-1.382627465939653710e+01
1.530852701063703769e+01
2.189384886513022721e+01
1.407341040095501095e+00
-1.995845622453292734e+01
-1.242523114126641026e+01
1.020174347265819570e+01
1.622538369509324241e+01
-2.859234561026549604e-01
-2.088330857918044714e+01
-1.344769113226476520e+01
1.314813136661326354e+01
1.265337759075658930e+01
-1.044120696805134862e+01
-2.579559783742320889e+01
-1.057966710195372961e+01
1.677646858755533188e+01
8.875657258803586913e+00
-1.994372576502313521e+01
-3.373071540843449156e+01
-4.330895321570268131e+00
2.789922414119859084e+01
6.808103239860414213e+00
-3.162001423379460618e+01
-3.702333877756391445e+01
2.342134374048034040e+00
2.922552483623436714e+01
5.774613439742698695e+00
-4.078551495784606828e+01
-4.091694621461365244e+01
4.089090626704489750e+00
2.898027262729273090e+01
3.933662055972866334e+00
-4.649270354992226828e+01
-4.014718953641141752e+01
8.942885007064244718e+00
3.225792371748830334e+01
7.519416234939508836e-01
-4.647243014291737495e+01
-4.130961516893514585e+01
8.972453684216953107e+00
2.805402115587303769e+01
-6.669273543037314234e+00
-4.887563353289007040e+01
-3.091337118994964683e+01
9.996398368075704255e+00
2.603435892562943010e+01
-9.542299765695339886e+00
-4.597919069302267303e+01
-2.513753919329559139e+01
1.449934971825219066e+01
1.717906888508123942e+01
-1.563285861418643741e+01
-4.100323512389411462e+01
-2.240378274515100543e+01
8.794588560057407634e+00
8.454261009392137538e+00
-1.769778529333263961e+01
-3.411171240319878706e+01
-1.492665791027615008e+01
3.364393065576838371e+00
2.619821497917313113e+00
-1.795521370593340293e+01
-2.556891120469834178e+01
-1.339019409800173399e+01
-3.771847829620498693e+00
-4.796680451801559997e+00
-1.641283220765895834e+01
-1.494467949034516785e+01
-9.837598319445174155e+00
-1.183158424514383178e+01
-1.440789113880960137e+01
-1.393339294287635610e+01
-5.232579812981708045e+00
-1.677759597767423827e+01
-2.130661206897047322e+01
-2.284979414082383897e+01
-5.010748380000033642e+00
-1.778919006892563548e+00
-1.643796241488231402e+01
-3.728817570070231824e+01
-2.673090246330740527e+01
-9.329472305339018945e+00
-1.735802127226536862e-03
-2.205864300357722030e+01
-4.499400733424901233e+01
-3.469294460416571013e+01
-1.025209076436878242e+01
-6.974020505071576892e+00
-3.012226475724518338e+01
-5.133033110963980761e+01
-3.956294487746227873e+01
-1.439782823669498413e+01
-4.015873990370738333e+00
-2.646042473149111274e+01
-4.529853814982431004e+01
-3.552112650778993697e+01
-1.444223973394474925e+01
-6.456839097701230656e+00
-2.022949525874120980e+01
-2.909927068414220486e+01
-2.718859042806064963e+01
-1.219332856491633166e+01
-8.683766362566039732e+00
-9.796580671502091775e+00
-1.888093176675623397e+01
-1.756292813511601025e+01
-1.491360885544542647e+01
-1.349650251955563895e+01
-9.597995549398524062e+00
-1.019270394477440256e+01
-1.478957675258249260e+01
-2.378741903048647188e+01
-1.668644850621091180e+01
-1.202490897632752542e+01
-6.296087191928299021e+00
-1.982762811900459710e+01
-2.039881943339020864e+01
-1.967019032829923120e+01
-1.136204860927079174e+01
-1.253350760645939843e+01
-2.412165870994981631e+01
-3.109387160811453654e+01
-3.898198172944908890e+01
-5.477187713041099926e+01
-9.093492302701017138e+01
-1.304032783145906080e+02
-1.641440382945838508e+02
-1.674656478742164154e+02
-1.592948712748163871e+02
-1.141715007528537456e+02
-3.471048380256252130e+01
5.831267738636427822e+01
8.890347592929991549e+01
7.216417826215214859e+01
2.613589622462060547e+01
1.835894897570586437e+01
4.251926984905669826e+01
3.652273310579425214e+01
-6.125051496460312883e+00
-4.815581255210070566e+01
-2.977381170728653004e+01
1.646356207456311793e+01
1.884955986109169856e+01
-3.067117066886585519e+01
-5.939097966707394249e+01
-3.012893240500541481e+01
2.327185823270158593e+01
2.107593632365643899e+01
-3.374327041559186569e+01
-6.472511589506775920e+01
-2.951855587377514922e+01
2.055418520526541215e+01
1.260164430266043389e+01
-3.942297794431045332e+01
-6.152081803306909080e+01
-2.767017407011203289e+01
1.564518635156607473e+01
1.182219517319881730e+00
-4.474679492161706662e+01
-5.345105817022191985e+01
-2.307639974491844370e+01
2.711468518637529357e+00
-1.527501847250450595e+01
-4.492336904796157171e+01
-4.231014626735734652e+01
-2.261170697777944127e+01
-1.327968233543911047e+01
-3.019444834830223812e+01
-4.257337629839567228e+01
-3.060174253600630578e+01
-2.402951332157362074e+01
-3.671659056150368627e+01
-4.595202747863642401e+01
-3.691779173514512280e+01
-1.901597067184916057e+01
-3.148769550884325596e+01
-5.759681339370145992e+01
-5.846446343830880465e+01
-2.784449022781430116e+01
-1.291754498415435037e+01
-3.923729383499586731e+01
-7.583919126640628861e+01
-6.460541368327480427e+01
-1.981417207785095158e+01
-7.947366582257869183e+00
-5.155466290938198171e+01
-9.060651720544487375e+01
-6.336710910291481724e+01
-1.161451183979842305e+01
-8.801519436823992848e+00
-6.292205460134738360e+01
-9.358646059678498830e+01
-5.176010877961027035e+01
1.980919815740003198e+00
-1.020654793839710273e+01
-7.339139491119890124e+01
-9.018181791366893663e+01
-3.350885850669968136e+01
1.756240195092856027e+01
-1.006919387394970045e+01
-7.102261297605706147e+01
-7.657546783188118411e+01
-9.639936813928557058e+00
2.935428329657590751e+01
-2.749385205317005809e+00
-6.128172428595762256e+01
-4.766007869062086399e+01
1.793240400241156252e+01
4.234405406091903501e+01
-4.390025690133254166e+00
-5.231152289403978273e+01
-2.485249904188537329e+01
3.373783765305304172e+01
4.125257646483824914e+01
-1.223580104922954348e+01
-4.503475825784862963e+01
-9.839069631460294119e+00
3.794754390340811057e+01
3.137214166829540574e+01
-2.188390503173190282e+01
-4.009734513920691512e+01
1.688416435208319522e+00
3.842361217274540763e+01
1.532786414715116763e+01
-3.142960083026734353e+01
-3.269213425814976404e+01
1.025133013586587438e+01
3.263620699129899805e+01
1.822814120344744326e+00
-3.649540308652624532e+01
-2.431551884585868706e+01
1.372490435755744187e+01
2.748358212315743287e+01
-1.058946389303631008e+01
-3.915977700948928941e+01
-1.750311888654398729e+01
1.939979204047854111e+01
1.805907792878302232e+01
-1.668820872631723162e+01
-3.582379685203135011e+01
-1.557717129928464139e+01
1.499071911414886671e+01
7.411361434694940797e+00
-1.972924718737439775e+01
-3.406610176404551282e+01
-1.142806164466887786e+01
6.629973621835686615e+00
3.419691283820516792e-01
-2.055891007480321164e+01
-2.753328612495066352e+01
-1.235162265580651031e+01
-2.126872399360557164e+00
-4.721994332316441501e+00
-1.469345540229202918e+01
-1.589400579292375504e+01
-1.397028876723125812e+01
-1.128402106279611061e+01
-9.754012259101937588e+00
-5.335185739446147046e+00
-8.855355760204604465e+00
-1.727095113945346228e+01
-1.941174700541779075e+01
-1.104628089852500494e+01
1.721412597867663319e+00
1.790801254021168187e+00
-1.878447358455132132e+01
-3.273130073495391912e+01
-1.703824665146805373e+01
9.335389622084248273e+00
7.143918081755476379e+00
-2.190486255028603679e+01
-4.032741768215534250e+01
-1.910047176802942559e+01
9.423559655782554501e+00
1.124491541117655125e+01
-2.230299731742971758e+01
-4.549917851046180317e+01
-2.333788787517379149e+01
1.047047860968172550e+01
1.522722299710129157e+01
-2.134386723064828928e+01
-4.319920701601639479e+01
-2.947936309907158758e+01
3.028004033972271358e+00
1.255238037135567097e+01
-1.338690362033715431e+01
-3.444974269056780258e+01
-3.190176842762453191e+01
-3.951541977039550346e+00
7.266810814188302103e+00
-2.854177869401374856e+00
-2.458906005008740081e+01
-3.179813431669517954e+01
-2.509660481078504191e+01
-6.815851935521164862e+00
-1.998920935105264363e+00
-1.221484107653723861e+01
-3.545093673731645367e+01
-3.799452756030335365e+01
-2.310362426628107713e+01
-5.389428866187577327e+00
-1.075901489014445644e+01
-3.952881904393728973e+01
-5.293759645981999284e+01
-3.244601813166111270e+01
-4.217968794631793195e+00
-1.737294232526205295e+00
-2.930462517143634571e+01
-4.688238081704058402e+01
-3.157634397949661675e+01
-7.618872302261989304e+00
3.166217669755617692e+00
-1.670534389765184358e+01
-3.037093861067226896e+01
-2.568810968102858894e+01
-1.820473340582712396e+01
-4.065456934787017751e+00
-5.150617345941419956e+00
-7.133806480287791629e+00
-1.899325459153138596e+01
-3.398835828532916281e+01
-2.728748695246920164e+01
2.796209230941455903e+00
1.684542102596544666e+01
-1.208771715963455406e+01
-5.275622593676401095e+01
-5.423221092439402469e+01
2.873242568053901547e+00
3.888421365656094508e+01
4.016564995276698191e+00
-6.982424412698814820e+01
-7.313413828761024149e+01
-1.473340962410007338e+00
5.467202908127070060e+01
-3.751297148127413994e+00
-1.129806526966734026e+02
-1.578193082633143831e+02
-9.685794466211626741e+01
-5.941178699803204921e+01
-1.288339408712835450e+02
-2.393471477415825177e+02
-2.099843903027329191e+02
-3.899200226176857598e+01
1.169005529049015450e+02
1.108048842271352044e+02
1.610338483077521587e+01
-2.731172987613301473e+01
4.299845406181704988e+01
1.024908475852513021e+02
5.346307974542690289e+01
-4.845777224203519751e+01
-7.409325068206230469e+01
-5.949212597382501855e+00
5.087938419566304304e+01
2.318751021402098900e+01
-4.718855890049272972e+01
-6.016745688776418888e+01
-9.412905144231563881e+00
2.552446591904517348e+01
-1.859652045323587632e-01
-3.866469610886706931e+01
-3.617317561375440960e+01
-8.946113115335936783e+00
-5.406452957130926329e+00
-2.246420935537275554e+01
-3.085400227180784327e+01
-1.432965278680535270e+01
-5.272943254423763548e+00
-2.043204891793812550e+01
-4.288472847217602180e+01
-2.628851093211291357e+01
5.901536745322673028e+00
8.526207984029393616e-01
-3.590230992524598719e+01
-6.503662446622519155e+01
-3.068885897505336757e+01
1.388092932147191227e+01
7.092207093290788578e+00
-4.455434933343409654e+01
-7.365203206548007131e+01
-3.615502326409475842e+01
1.527764611218971247e+01
8.148172172031195259e+00
-4.732619077847189715e+01
-7.904841355463237562e+01
-4.685851533524128598e+01
5.858336850273395235e+00
3.387177877592723263e+00
-4.751228279184721259e+01
-8.111398520693137471e+01
-5.501162715128162972e+01
-7.318824320292632635e+00
-5.718535739617621516e+00
-4.855338016412660807e+01
-7.587270394705038257e+01
-5.580175749695662546e+01
-2.101633325864082380e+01
-2.445627246900688689e+01
-5.586549892738919709e+01
-6.779374878710986252e+01
-4.799240777146890480e+01
-2.785877917558722672e+01
-3.607429165067738808e+01
-5.609046071241911591e+01
-5.608065786373179407e+01
-3.300284809076733694e+01
-2.496545828343062468e+01
-4.524856698717177750e+01
-5.900165095009123917e+01
-4.416473441492921381e+01
-1.644920277194308156e+01
-1.898804458311178678e+01
-4.666892304358597698e+01
-4.607347814658665897e+01
-1.754160120473095574e+01
7.695779769633169565e+00
-1.579126491898302564e+00
-3.557239763459817539e+01
-3.849803764989609078e+01
5.039410209297189525e+00
2.004627252529693138e+01
7.484229745972740488e+00
-3.008041128820608279e+01
-3.028393132126744547e+01
8.149404902862107392e+00
3.054440634643647812e+01
6.181711332528146308e+00
-2.526757269633217007e+01
-2.005003895107078904e+01
1.521207627616743530e+01
2.376572257758169471e+01
-1.982712655609161767e-01
-1.797777753961297620e+01
-1.123774303457262924e+01
1.419151346939836067e+01
1.170325728358893258e+01
-7.044828084940920832e+00
-1.447768358539514111e+01
-1.669505947863472395e+00
1.356210237220576964e+01
-8.841437563878350447e-01
-1.195896475860195984e+01
-8.075172454666368793e+00
9.391312060356863611e+00
7.569092338408509590e+00
-8.335579129956402156e+00
-1.864409351760777511e+01
-4.821839166182836145e+00
9.353190198394123911e+00
-3.313991184074954743e-01
-1.588014892559339053e+01
-1.182779963950345348e+01
-1.371361074847690542e+00
4.198183737227084933e+00
-9.040647026931818431e+00
-2.110880095180194971e+01
-5.873404879519145361e+00
6.999758924299592344e+00
-9.135980633036922427e+00
-2.358558498821907179e+01
-1.499273576561616039e+01
6.154489516080819733e+00
5.260865287583479599e+00
-2.002248885518363153e+01
-3.620823353851054094e+01
-1.446880066628306771e+01
1.601590325035942897e+01
9.467720311495130048e+00
-3.196874664289786949e+01
-4.577790332725095368e+01
-8.751396205870063838e+00
2.825050554764199617e+01
1.165200350103334337e+01
-3.771855765244023928e+01
-4.940341474268078059e+01
-1.060920059635455459e+01
2.824767230065778278e+01
1.380102616687946693e+01
-3.726740668524804079e+01
-4.903977338284551735e+01
-9.840308368072440359e+00
2.507478923489792777e+01
1.292002782856207332e+01
-3.346283005118962706e+01
-4.287404291211128537e+01
-2.009754957989445145e+01
1.278773779643201003e+01
8.128466703894801526e+00
-2.200889146045822287e+01
-3.434353291966945676e+01
-2.408916659636307145e+01
2.122378847688191073e+00
8.725425537925859842e+00
-5.896474438832441933e+00
-2.676231110398724411e+01
-3.205456004090576982e+01
-1.532702630024747847e+01
3.173495060449273097e+00
6.531700932196876863e+00
-1.866589456103869438e+01
-4.033322440690718480e+01
-2.316933489195670148e+01
5.988390346929437946e+00
1.156399680931597374e+01
-1.708108197611995038e+01
-3.983211251718956447e+01
-2.917434001779182751e+01
3.566621080242558417e+00
1.083717960334514885e+01
-2.095380000027266831e+01
-4.425168029963162297e+01
-3.283086971199893611e+01
2.016545689625736326e+00
5.836515994532430751e-01
-2.491378505373671004e+01
-4.602907099112191958e+01
-2.835438123275657318e+01
-8.935110034931287970e+00
-1.062507694234032130e+01
-3.644080114393932490e+01
-4.505994872366304094e+01
-1.918198483987254832e+01
-1.912230447667707667e+00
-1.950269508229559179e+01
-4.136391930670136219e+01
-3.133100186781850383e+01
-5.157678029196581804e+00
1.270890164087812746e+00
-2.179489137599189874e+01
-4.152010014524520187e+01
-1.961020739448913730e+01
8.304508479651035557e+00
4.854955911408282532e+00
-2.288870984543441978e+01
-3.735666479033657339e+01
-1.230068956206739195e+01
1.281174315266005870e+01
3.388262116177886973e+00
-3.010276919361213288e+01
-4.029602503864726515e+01
-1.248657519269768379e+01
1.018129827381338259e+01
-4.097724562755674427e+00
-3.361236865741479818e+01
-3.477452842164425562e+01
-8.118113874514376604e+00
7.226350001602953377e+00
-1.304970544774934460e+01
-3.410231386010414667e+01
-3.098381851987237567e+01
-1.623035646379653940e+01
-1.772115861886235422e+01
-5.650498007410316603e+01
-9.233002858349131259e+01
-1.184394476038710167e+02
-1.420840130572842384e+02
-1.753353159411513218e+02
-1.953189556602353605e+02
-1.407917205520732864e+02
-4.754407922877345527e+01
4.384160087226844382e+01
6.833276130429513273e+01
6.356458442320681002e+01
5.338310829648594336e+01
5.071008489002552011e+01
3.900426054983619650e+01
8.748708600489729648e+00
-1.711741249676558496e+01
-7.703388324699592005e+00
2.829134096380118812e+00
3.035853422849767114e+00
-2.296131605040234547e+01
-3.107559977002019735e+01
-1.599510806035612553e+01
1.717586508954709323e+00
-3.045290334766329821e+00
-2.973942728920336975e+01
-3.246993524375279350e+01
-1.374293813049034263e+01
2.485539662131553751e+00
-1.274646313122294750e+01
-3.036601095860468291e+01
-2.980428013711750168e+01
-9.600881206192520168e+00
-4.718093873175737585e+00
-2.018808558227391003e+01
-3.540710240536842690e+01
-2.776505226906187573e+01
-7.487516799057022610e+00
-6.758329758591437475e+00
-2.734637932422002748e+01
-3.638059211663971126e+01
-2.006409630732893135e+01
-9.254148089236794661e+00
-1.843515955639641746e+01
-3.436574892352952304e+01
-3.606809432794881332e+01
-1.633128276201473739e+01
-1.229753666289284197e+01
-2.933180286380762425e+01
-4.382284751503407705e+01
-3.581576567500003705e+01
-1.807256284767991517e+01
-1.929486471149017746e+01
-4.069658815159424137e+01
-5.283810033640278192e+01
-3.565329313885695939e+01
-1.667834208006132357e+01
-2.820208492305030035e+01
-5.546045550493781917e+01
-6.198620339537287549e+01
-3.812534128913384279e+01
-1.744852030985691016e+01
-3.355584229547386599e+01
-6.343526639833606851e+01
-6.703382968924225338e+01
-3.885006045254672102e+01
-2.160147723105519546e+01
-4.099256542251889357e+01
-6.965182852305296990e+01
-6.860097235332139576e+01
-3.394613303139862381e+01
-1.525256443809121087e+01
-3.479729237310959178e+01
-6.671813573967696698e+01
-6.787535583058716782e+01
-3.654896550040003689e+01
-1.237318170986169719e+01
-2.226260190597779953e+01
-5.304426948548669429e+01
-5.749357865429359293e+01
-2.663021194558480076e+01
2.239174156109436264e+00
-6.924382417233087006e-01
-2.881072115205082440e+01
-4.264296435035230814e+01
-1.923790530296188805e+01
1.494695541388907856e+01
1.898922427113868494e+01
-1.164555196632151635e+01
-2.935609523292317036e+01
-1.311887998553531709e+01
2.119865215944654224e+01
2.591376554036854785e+01
-9.143037907322920654e-02
-2.789602970466890142e+01
-1.352879457336196189e+01
1.840833473099741724e+01
2.399646199528804758e+01
-3.040607426399084989e+00
-2.509200586439403580e+01
-1.094034949492189668e+01
1.783042148527393422e+01
1.844724810634932410e+01
-4.352224584061465507e+00
-1.849779476291899272e+01
-5.369781142527886075e+00
1.048410465968213856e+01
1.085273418297792603e+01
-9.820831275348030687e+00
-1.630406865207017475e+01
-5.160123738741062560e+00
8.170075050772007685e+00
-2.382232609564249315e-01
-1.254755975613129060e+01
-1.202132664657284522e+01
-2.249854987346034285e+00
2.587683398259553069e+00
-2.115542700063199444e+00
-1.361556044041384972e+01
-1.003073591569733480e+01
-1.150131197286289764e+00
-2.483956879011033347e+00
-2.837905000606117500e+00
-1.084472405912835136e+01
-1.114799653777523503e+01
-6.979618956351308690e+00
-7.013219165083754980e+00
2.808141272748455528e-02
-2.348629351112476282e+00
-1.734332980106362143e+01
-2.291121394423342039e+01
-9.633190137641287620e+00
1.012936758046565799e+01
5.334476267050729525e+00
-2.471008263819331674e+01
-3.926018881708306907e+01
-1.470500701254511178e+01
2.262989869513315355e+01
1.962534310900280587e+01
-3.069348251516426629e+01
-5.222696409622999880e+01
-1.652883715226772665e+01
3.302002881646129140e+01
2.170627510175873809e+01
-3.750815677706863482e+01
-6.307412367555456711e+01
-1.963939986222820622e+01
3.417888946360613289e+01
2.248355016722300448e+01
-4.061625724758457778e+01
-6.635087086338732831e+01
-2.107429639083290596e+01
2.934324927496492919e+01
1.637133237393734575e+01
-3.912526140325423540e+01
-5.774247572155510966e+01
-1.749370887190784529e+01
2.466140717981043196e+01
7.598792240837958900e+00
-3.399748548009980453e+01
-4.523603238773503676e+01
-1.506920435686418358e+01
7.147257209073484496e+00
-2.105059329659192180e+00
-2.702787841925114520e+01
-2.952208053673979649e+01
-1.613874165631284896e+01
-7.948814648395439164e+00
-1.237784831065416924e+01
-1.761871350620988252e+01
-1.581662849933636217e+01
-1.671843974656952980e+01
-1.913926703632053972e+01
-2.236604679831997800e+01
-8.434695816118210843e+00
-7.496177537207007191e+00
-1.903410223604104345e+01
-2.973373974868099268e+01
-1.575021270073154689e+01
-2.043432570980349361e+00
-4.013351997767203194e+00
-2.925556557368527066e+01
-3.156749661598233558e+01
-1.327875261113645600e+01
1.368568475740535195e+00
-1.447216520564318110e+01
-4.156977784720089630e+01
-3.519532901243460543e+01
-1.159026324679091324e+01
1.545849910235128633e-01
-2.401716381617316998e+01
-4.462328881082158460e+01
-3.551185700135734891e+01
-7.346963406981153355e+00
-9.761415883309641828e+00
-3.590656574950191526e+01
-4.923382558799468711e+01
-2.795830450340590900e+01
-3.949319277801638606e+00
-9.948502511369946788e+00
-3.589592491681576547e+01
-3.915942095703545789e+01
-1.861395977940548363e+01
-8.266055943405028472e+00
-1.858127494446706507e+01
-2.744333995149820637e+01
-2.266526540316647953e+01
-9.499663140271856321e+00
-1.383158045560126581e+01
-2.056540282014660548e+01
-1.730328364660024576e+01
-4.667469946694144056e+00
-5.332421464484577101e+00
-2.882122668890984940e+01
-3.166318522626726661e+01
-9.286858447135859507e+00
1.264575593446499191e+01
-7.798528882909641524e+00
-3.985678876217491506e+01
-4.262640814841716974e+01
-2.259372214653283972e+00
2.264654879148732292e+01
-5.220846313184546617e+00
-5.240673165308980685e+01
-5.134920567148682125e+01
1.281172279122562596e+00
1.932397931794491441e+01
-1.535390721951004878e+01
-7.632740568544785731e+01
-1.010402541014029367e+02
-8.645425464669760629e+01
-9.776049279582719009e+01
-1.589989398524968465e+02
-2.210226021176669633e+02
-1.953880370436091880e+02
-9.976419523900804620e+01
1.706328361340826660e+01
7.479684745079838137e+01
6.219179128191937878e+01
3.733059900700521894e+01
3.147254408832000649e+01
4.948862486981082753e+01
5.103450121486789470e+01
1.667562997747712217e+01
-3.074558442381376722e+01
-4.112482784865742502e+01
-7.486805845128187364e+00
2.344441019479875266e+01
9.844651293191470032e+00
-3.691036342015995331e+01
-5.591390076232108441e+01
-1.971791027368629301e+01
2.330443634391805219e+01
1.491058997392273078e+01
-3.759936325814017266e+01
-5.576319350797429308e+01
-2.615899651997351683e+01
1.509527381641564681e+01
9.416928465482842014e+00
-3.502343535111538841e+01
-5.212558885721411173e+01
-2.480743895722800119e+01
5.753373829306031695e+00
-8.938035264433898064e+00
-3.783075649885240210e+01
-4.128419554555649285e+01
-1.503413495918110421e+01
-9.571423554869662453e+00
-2.947101875756986544e+01
-3.591193104888262866e+01
-2.068324892407970594e+01
-4.179200588973376540e+00
-2.216779618236581584e+01
-5.363175425381964345e+01
-4.543012983996831622e+01
-6.565492344389627810e+00
3.474054024874931201e+00
-3.659379425027072585e+01
-7.171177796243789260e+01
-5.309016829394941084e+01
-3.368881443022517352e+00
9.029924950288437557e+00
-4.239709274612542345e+01
-8.259198550684421036e+01
-5.857760343856240581e+01
-7.410390573876276754e+00
1.194475799240610980e+00
-4.948171535626205753e+01
-8.596614231790836413e+01
-6.503106839588819810e+01
-2.227933793477489743e+01
-1.201638639361954475e+01
-4.701114037826936709e+01
-7.665389778935048071e+01
-6.638547955229275033e+01
-3.511607887424706576e+01
-2.530404461556955553e+01
-3.990616118079547192e+01
-5.691999659479235874e+01
-6.045454945638434197e+01
-5.065162935043921522e+01
-3.384131722768402284e+01
-2.713741760314171714e+01
-3.404323380434136936e+01
-5.270242058827587783e+01
-5.363422800664263690e+01
-3.450905506962499203e+01
-1.207601451588595154e+01
-9.619093866474418775e+00
-3.276093385459567742e+01
-4.715452826555132049e+01
-2.321373882268284561e+01
5.869877315057430600e+00
1.184547876662140631e+01
-1.984422435257879869e+01
-3.443735052936356311e+01
-8.859690424389778940e+00
1.922272859300133163e+01
1.259992716066084562e+01
-1.626046533043635378e+01
-2.486958365480251842e+01
3.334981840226114880e+00
2.405199707300631218e+01
1.039377561806157679e+01
-2.120073027651250896e+01
-2.030569345610475551e+01
1.427225020607300010e+01
2.641424003016833666e+01
-2.577836272974954657e+00
-2.889951722738922513e+01
-1.393699643126258714e+01
2.400497762218750353e+01
2.385079681339438551e+01
-1.014105834889210378e+01
-3.913684479781470316e+01
-1.514395048129731336e+01
2.601856304158420841e+01
3.014302776186719157e+01
-1.351662519809273277e+01
-4.393014350386298617e+01
-1.973028126099562485e+01
2.334113616739814034e+01
2.841419921758743428e+01
-7.148697314097855582e+00
-4.318895968085146819e+01
-2.877797446268041526e+01
1.512488685865931259e+01
2.752391286808425264e+01
1.256111243240451758e+00
-3.710599326099588069e+01
-3.912635490344069922e+01
-1.476696638198779166e+00
2.958212707319906087e+01
1.244524998358330414e+01
-2.513788728753498702e+01
-5.025471911789998103e+01
-1.407431789623191598e+01
2.636189734463140510e+01
2.280331840499426477e+01
-1.956408994802544399e+01
-5.221647270384680439e+01
-2.717901718708827019e+01
2.243159834863683955e+01
3.156974050863310310e+01
-1.475705194048684454e+01
-5.427693688180801246e+01
-3.232219008654950443e+01
1.594211766926209606e+01
3.067235885213824531e+01
-1.040163392278645738e+01
-5.103913950190630544e+01
-3.679030535304192995e+01
7.147141549918782921e+00
2.791620682887338845e+01
-1.192778665356206425e+01
-4.904750160359773048e+01
-3.274583411454859316e+01
4.848681630061608239e+00
1.750736365374256920e+01
-1.635642049025907596e+01
-4.305875391008530784e+01
-2.671896506483501454e+01
5.999439009585178617e+00
1.212673138513800275e+01
-2.062321871765061942e+01
-3.828814287642219227e+01
-2.766615172440416970e+01
4.640944590849252371e+00
6.915101371569413402e+00
-1.928364039056728529e+01
-3.993509356405034083e+01
-2.392998557054618658e+01
3.229754084040346029e+00
4.741163052461398131e+00
-1.736954071535319954e+01
-3.817138273879414356e+01
-2.245574806785508670e+01
-1.749367721878735793e+00
4.000865620945997847e+00
-1.611012963366641770e+01
-3.458600281732046966e+01
-3.252006029153903910e+01
-1.010548462913373058e+01
3.990106433372982764e+00
-4.268840158906038518e+00
-2.989818720641440919e+01
-4.304435359484192247e+01
-2.046177748574446653e+01
6.681145052666058071e+00
6.028336896502972664e+00
-2.064357097750445291e+01
-4.636538175003968831e+01
-3.117878881142623726e+01
4.593056778471260593e+00
1.892921227507167359e+01
-1.354803819087226380e+01
-4.918539862637731375e+01
-4.374613647335809929e+01
-3.574437661842382763e+00
2.075653514383636633e+01
-6.424609032541462206e+00
-5.037470499703125881e+01
-5.353742648368728396e+01
-1.177378684113122098e+01
1.888297768594951620e+01
-2.613690285332443519e+00
-4.636184491515441408e+01
-5.768320503807631638e+01
-2.295857853392502790e+01
1.029413378886435027e+01
-7.165203588389297273e+00
-4.599569099081706014e+01
-5.976047814416729409e+01
-3.380691669639640651e+01
-5.346541913434650795e+00
-8.064707523882454154e+00
-3.594455503493193049e+01
-4.704779108311866054e+01
-2.754567646830557592e+01
-9.155909635246111122e+00
-1.379547060537171888e+01
-2.584752197209218494e+01
-2.723676912735017197e+01
-2.057543800236367915e+01
-1.486904499694549031e+01
-1.840844511759644675e+01
-1.850335569959204562e+01
-1.167555845353686550e+01
-7.679626351052617927e+00
-1.679339879156893289e+01
-2.608735831949115891e+01
-2.435344749244669771e+01
-7.381831246234815680e+00
2.399099197704163411e-01
-1.758285893986893811e+01
-3.701572279576853930e+01
-3.440323534431450270e+01
-9.145240363193432032e+00
1.078643599681989862e+01
-7.598640388639416265e+00
-3.724339724544835661e+01
-4.657469844317827068e+01
-1.301183360058355021e+01
1.281460934470472068e+01
-3.760141740843958136e+00
-5.925225296528338959e+01
-9.734509991998650946e+01
-9.231518107204638568e+01
-8.596613266475209514e+01
-1.349512446373326497e+02
-1.990317382946566909e+02
-2.194494909479314515e+02
-1.332355361933956601e+02
-4.727201074362494815e+00
8.581787625256714591e+01
6.234657787015073893e+01
2.357214577341943240e+01
2.930666508782821467e+01
6.834564212050557330e+01
7.622903860967753076e+01
1.248757042308172771e+01
-4.987348391134477765e+01
-4.027724827880094693e+01
1.661210141549462804e+01
4.021325752120018393e+01
-4.517359312817442962e+00
-5.935396544995894175e+01
-5.090529052748932770e+01
6.427259861542874653e+00
3.410379156195675421e+01
-4.518315102625449775e+00
-5.308582449618291577e+01
-5.301831738009684614e+01
-1.298271532307771592e+00
2.437809769465401644e+01
-4.164490881536367262e+00
-4.951048274850944608e+01
-4.927084513103255148e+01
-9.271231022964261825e+00
1.210879165584210959e+01
-7.217153892296748197e+00
-4.292400231176977599e+01
-4.485494522974435228e+01
-1.568588113527310135e+01
-1.679200527903876194e+00
-1.417398713740710470e+01
-4.226239489423002738e+01
-4.270944232800186313e+01
-2.588385685761066313e+01
-1.154189521876461555e+01
-1.394998107016830247e+01
-3.506454354227631143e+01
-4.389035958215422539e+01
-3.297973137551934286e+01
-1.989639733705865510e+01
-1.834837434964129699e+01
-3.856102562437165204e+01
-4.530533076578053198e+01
-4.263522373684081401e+01
-2.600358592973568150e+01
-2.214451613582307843e+01
-3.979840785738841191e+01
-5.587492202455067769e+01
-5.009420514695418092e+01
-3.070962343475373046e+01
-2.775988404509325491e+01
-4.571687353126821307e+01
-6.103027876579879774e+01
-5.647266814669482926e+01
-4.007024624570913574e+01
-3.266295248266393969e+01
-4.714546265373157752e+01
-6.134456781137958359e+01
-5.418182670429537495e+01
-3.999738811790151516e+01
-3.673744669468899815e+01
-4.673892727958500615e+01
-5.306306431531778856e+01
-4.829677300844062415e+01
-3.603290285991903374e+01
-3.686814878102839543e+01
-4.192369640059411040e+01
-3.935061441286661221e+01
-2.769564813066005371e+01
-2.428886338979764403e+01
-3.390765517126420292e+01
-2.892636387576635926e+01
-1.519091452969314382e+01
-4.881606885158355169e+00
-1.352692929557690249e+01
-3.003884618485390234e+01
-1.792252570297638670e+01
8.996442587336714425e+00
1.247187227691873801e+01
-1.030643433955001598e+01
-2.539496150840668420e+01
-8.281979688872054268e+00
1.985729333830645160e+01
1.909365274287726422e+01
-8.125206381651450371e+00
-2.670064963020123372e+01
-1.826401099095064762e+00
2.852866236074921957e+01
1.958721740594640792e+01
-1.750495257769806301e+01
-2.869037481714238425e+01
1.332086154411350233e-02
2.483974657652735729e+01
1.560929226289120741e+01
-2.001682217469745595e+01
-2.614701194876320400e+01
1.233558662737756606e+00
2.823679320371737234e+01
8.664933328649391697e+00
-2.527975278729610409e+01
-2.754953241973201017e+01
3.516732067042595666e+00
2.349082779869011972e+01
6.573314896018000120e+00
-2.597668317237722135e+01
-2.646807855244327357e+01
5.653050602246539214e+00
2.132651949969688587e+01
3.788595421165958044e+00
-2.591664479969026402e+01
-2.594028247240373375e+01
9.898207834802388305e-01
1.912970610730757315e+01
8.253168855439146911e-01
-2.913373730929037109e+01
-3.006820619276822626e+01
-7.258245377204673332e+00
1.584607915335955575e+01
6.010215721745029605e+00
-2.597676114793321744e+01
-3.498918971030111891e+01
-1.497286097638930791e+01
1.109572879506907483e+01
8.669196225966913971e+00
-1.912657155442135704e+01
-3.722964066066555233e+01
-2.041719518429806968e+01
9.435378381888517296e+00
9.699537765941082412e+00
-1.649409246623743641e+01
-3.530388764902918552e+01
-2.377342518226539525e+01
3.640567043631929067e+00
9.331664143247982324e+00
-1.299757526950308950e+01
-3.232690005436554515e+01
-2.476301024451610644e+01
-2.122669922679878418e+00
5.807253392525007385e+00
-1.127556585837902503e+01
-2.540543890424590501e+01
-2.413339092741251335e+01
-6.313396597350583228e+00
-5.277819755746260277e+00
-1.143657449002830084e+01
-1.665827095350714515e+01
-1.382503871444354004e+01
-1.120930044691295180e+01
-1.510160681824247320e+01
-1.295471206289627375e+01
-1.185903735130331071e+01
-4.734280509241346913e+00
-1.818755777408364693e+01
-2.218226910999918644e+01
-1.878271685471737840e+01
-2.840037013265740207e+00
-3.127436207292009218e+00
-2.196132322779079971e+01
-3.118852117946817160e+01
-2.067875436513724097e+01
1.114198921813100984e+00
-2.891315254496087839e+00
-2.065757526089291574e+01
-3.370756260978549079e+01
-1.465705251221513095e+01
6.530266780875969568e-01
-2.875698481906063808e+00
-2.469188049758211179e+01
-2.869436186569734204e+01
-1.540878721391646877e+01
-1.617049490904245213e+00
-1.056568106361948445e+01
-2.548908749296001020e+01
-2.443850310996584696e+01
-8.527539670125909410e+00
-6.471001981157890270e+00
-1.521705860264789933e+01
-2.717610127020019206e+01
-1.705931185866273481e+01
-4.424690528428455671e+00
-1.162148550384014989e+01
-2.642953067572830861e+01
-2.939892904693155984e+01
-1.271338629335339476e+01
-1.922201528504391410e+00
-1.826132441055732158e+01
-2.997483191450110951e+01
-2.837615742662998741e+01
-8.806974752881350454e+00
-7.630015432367459383e+00
-2.036518591881855045e+01
-3.759681536344776731e+01
-2.620692869189520735e+01
-1.050768557973628781e+01
-1.230912989061265073e+01
-2.861862263739031320e+01
-3.449671435922229534e+01
-2.533878858056483097e+01
-1.474299934374243293e+01
-2.345115082586143984e+01
-3.799344935216025476e+01
-3.731512619490077043e+01
-2.201523680821435036e+01
-2.069424462478623639e+01
-3.525319031158703353e+01
-4.513677010809728785e+01
-3.159220411311586219e+01
-1.050255523922124645e+01
-1.260845744022173598e+01
-3.804457096355903900e+01
-4.682842648983415756e+01
-2.287181086469346170e+01
3.044766983461753451e+00
-3.625251465611390778e+00
-3.706711462976767990e+01
-4.775159616941338925e+01
-1.874930963822821184e+01
1.709699987825672807e+01
8.700998501303681465e+00
-3.137689486342685186e+01
-4.971350411611527420e+01
-2.619694287231550689e+01
1.551238549172062520e+01
1.940271416630017498e+01
-2.257180274123287944e+01
-5.528489371464181090e+01
-3.641942128009616653e+01
7.310016874573319612e+00
2.165882688319563343e+01
-1.108396379025701783e+01
-4.965958695366648357e+01
-4.731951509204700557e+01
-4.822232340735896017e+00
1.674302709728269889e+01
-8.903653245297986629e+00
-6.143261261426061282e+01
-9.344601734755592304e+01
-9.149559354782940090e+01
-9.295946344272088879e+01
-1.337833889083948122e+02
-1.859987577358744204e+02
-2.031251727541270498e+02
-1.331291776707641077e+02
-1.522792196044570545e+01
7.685248274757397269e+01
8.061303583757782576e+01
4.659820074775385734e+01
2.211618794875170124e+01
3.614928654369948902e+01
5.895720908021443307e+01
3.746656503160206597e+01
-1.146646171215081011e+01
-4.675153615247206318e+01
-3.112848276796945157e+01
1.453171692171133778e+01
2.680673800238176341e+01
-9.406478556562953841e+00
-5.546098201998947275e+01
-4.790261057395824906e+01
-1.312943095977204599e+00
2.817295675978645875e+01
2.660907171096893009e+00
-4.890056179498131428e+01
-5.979126243480509828e+01
-2.093920975529955442e+01
1.917493357538791088e+01
9.808579803587068824e+00
-3.790562936918846049e+01
-6.023443553034486087e+01
-3.824282757091432217e+01
7.665270768574566240e+00
9.486047499541843564e+00
-2.545682386105821138e+01
-5.600142742413540020e+01
-4.586183228511029597e+01
-1.076724880315968313e+01
1.289947517870942750e+00
-1.652783556987072089e+01
-4.798341080327876540e+01
-5.015532249306603774e+01
-2.684028792770187977e+01
-9.932832575970600431e+00
-1.893701445562572516e+01
-3.732456135742734205e+01
-4.864430977087170760e+01
-4.383769668575801148e+01
-2.968554213039914558e+01
-2.455838099444010680e+01
-3.316066341207056922e+01
-4.178010249829191025e+01
-4.569530240505225294e+01
-4.193315324299696556e+01
-3.713244985667135012e+01
-3.236258544543743909e+01
-3.512321396388171735e+01
-4.457675316401915211e+01
-5.336701929673296974e+01
-5.272421307312460925e+01
-4.068103677073675328e+01
-3.120520441866668193e+01
-3.976695599217660515e+01
-6.041626750036552806e+01
-6.666943490010235962e+01
-5.155948567944670202e+01
-2.544400368338058982e+01
-2.492763414876204209e+01
-4.868467863831806852e+01
-7.069982345651219191e+01
-5.566749884913006241e+01
-2.645790752443797089e+01
-1.095804374441195428e+01
-3.268144811562510910e+01
-6.289163096553286891e+01
-5.697797892017378985e+01
-1.798436536300834021e+01
7.180219762763926816e+00
-1.394504775790681173e+01
-4.515338968894792515e+01
-4.504319255943868683e+01
-1.040514923053592256e+01
1.631713385520748361e+01
9.145106256679842005e+00
-2.212936222757062055e+01
-3.206922702789632496e+01
-5.679508948879982810e+00
1.536407733026855382e+01
1.747830675638995857e+01
-3.588759842168776082e+00
-1.546151340032366761e+01
-1.235896965205206932e+01
4.981995310916676800e+00
9.886014505072916236e+00
4.469363574295723396e+00
-1.688209671676313306e+00
-7.343300668649112239e+00
-8.236721374007336394e+00
-8.287139694207426022e-01
1.069149550300330631e+01
1.247536149109426340e+01
-4.138865339930860365e+00
-1.879885722792267444e+01
-1.349920810211980005e+01
5.953193000211129515e+00
1.906973769207429470e+01
1.439875709548706251e+00
-2.623656049925157419e+01
-2.762675382497217669e+01
2.499282243717589669e+00
2.108861189520781210e+01
5.991528041926206249e+00
-2.367109207299581186e+01
-3.349011685882736344e+01
-9.348626407284275075e+00
1.529017725026552554e+01
9.397569477446584330e+00
-1.788997077937257885e+01
-3.297252729352302225e+01
-2.076232050692092557e+01
4.600198872696318886e-01
1.152766012333782797e+01
-2.972488565978209429e+00
-2.384948917721962403e+01
-3.302282878454227699e+01
-1.191731420761096594e+01
7.539699867002441991e+00
1.037068080162873329e+01
-1.546563013349631532e+01
-3.896263512235626081e+01
-2.843953960815779780e+01
3.689020262428160724e+00
2.551497082699977170e+01
-2.931052415770481367e+00
-4.610615368337172981e+01
-4.175593081714949051e+01
1.741652384385957486e+00
3.448507505868425227e+01
7.880274476510000348e+00
-5.351053656119131574e+01
-5.442481991957274801e+01
2.274573128094325714e-01
4.323455315455373693e+01
1.219446095365707272e+01
-5.342641745454093183e+01
-5.941959395901681518e+01
8.204295236347638465e-01
4.562388602537590998e+01
8.788585813836498062e+00
-5.495898371451839637e+01
-5.917273365862307344e+01
3.078997471861983470e+00
4.217758306537415081e+01
2.902635129230549449e+00
-5.789350138778097943e+01
-5.719943586236060895e+01
7.640317739507007211e+00
3.775488203339902782e+01
1.672272124566380302e+00
-5.376631695360288887e+01
-4.646721217827544592e+01
9.791082193534835554e+00
3.126566819518155427e+01
-2.699465781533731068e+00
-5.214822053531145940e+01
-3.973837696685684051e+01
4.196003064553011974e+00
2.251336324438840819e+01
-1.073474382514764436e+01
-4.300874522381850085e+01
-3.809504407949796700e+01
-3.494908245867592633e+00
1.417555751087990323e+01
-9.165663051808714101e+00
-3.598710265537360442e+01
-3.277376284785506044e+01
-1.039654674821115066e+01
3.871511215543007811e+00
-7.955269076268112194e+00
-2.942521491391408262e+01
-2.932171679258484787e+01
-2.160326068135994859e+01
-3.763658816902409665e+00
-5.864408434414446702e+00
-2.010919119347583717e+01
-2.897866076763469678e+01
-2.280535681972274631e+01
-1.306768710263864364e+01
-9.731031440918608055e+00
-1.478217858472335067e+01
-2.612274605005144679e+01
-2.409716688893148628e+01
-1.843102402919452487e+01
-1.272409626316658304e+01
-1.458827161578705223e+01
-2.561189653260284871e+01
-2.669262883088048710e+01
-2.544477568569959658e+01
-2.583760650743295884e+01
-2.364602367489598578e+01
-2.490251852205065219e+01
-2.129139463353412864e+01
-2.805514789603885717e+01
-3.580282556662295690e+01
-3.191495784768791211e+01
-2.291310253820623188e+01
-1.795663773601929947e+01
-2.765288730999339606e+01
-4.445029800524584118e+01
-4.142123032003005534e+01
-2.169099647135280051e+01
-9.533192066992656422e+00
-1.804761028352049124e+01
-4.139890229790479026e+01
-4.278457617920795997e+01
-1.200643393162055084e+01
4.207466666285603729e+00
-1.131937998741021190e+01
-4.183901479886351638e+01
-3.788322194300113921e+01
-7.019156523925175861e+00
1.241555791387454555e+01
-4.585255771734954244e+00
-3.114699192954453366e+01
-3.644496622299169530e+01
-1.613558368167222312e+01
2.727792094571040771e+00
-1.748638439319389004e+00
-2.112675557649110303e+01
-2.937832192724184566e+01
-2.410990928720636717e+01
-1.163119960417220611e+01
-5.303275454786631649e+00
-8.799725156424518246e+00
-1.974741398535058678e+01
-2.536295508159722445e+01
-1.923443508441270211e+01
-1.324214658872072548e+01
-1.181343212163932321e+01
-2.941503829196191333e+01
-6.542345907039000963e+01
-9.618814062062419623e+01
-1.170846278672852634e+02
-1.286619963995876503e+02
-1.544862546188642511e+02
-1.793583962573084989e+02
-1.399701707106191293e+02
-4.599882970499542978e+01
5.903151924930404704e+01
8.825770806937312329e+01
5.793786780871213438e+01
1.889936513034562182e+01
1.802650397655453673e+01
4.094682393086723238e+01
3.875683723200897646e+01
-5.316229758525134130e+00
-4.344224134747063459e+01
-3.299164463286999194e+01
7.085922790214134181e+00
1.879530698538832212e+01
-1.159899539324760731e+01
-4.806097871115400721e+01
-3.717319929114884758e+01
-6.103579189018881745e-01
1.584877550028520332e+01
-8.696226966540910652e+00
-4.572758708364596458e+01
-4.687608492201730570e+01
-7.911863057188226023e+00
9.751110615562135209e+00
-9.221385432207760857e+00
-4.525469176587979803e+01
-4.276265207391977441e+01
-1.799867961228205715e+01
4.329029064566484841e+00
-1.417893245930470414e+01
-4.090583056719815147e+01
-4.184283013688030906e+01
-1.998840793052737297e+01
-3.853479744327380718e+00
-1.769231475929202446e+01
-3.807036353934131512e+01
-3.949669210872469449e+01
-2.013395449715518382e+01
-1.255915225140303804e+01
-2.797197314513584132e+01
-4.029157986471123820e+01
-3.646435943501328580e+01
-2.164735863630988533e+01
-2.175498568692942314e+01
-3.653188383982554654e+01
-4.660506420824064833e+01
-3.078145003453144213e+01
-2.222680439913145634e+01
-3.438647360212286230e+01
-5.359407058517299305e+01
-4.803767950081122962e+01
-2.564276575791622648e+01
-2.345484233775307814e+01
-4.517033854729827880e+01
-6.256834827529715426e+01
-4.707074543127536259e+01
-2.719787617076031694e+01
-3.026809838930018870e+01
-5.251309408212710395e+01
-6.447378743813297319e+01
-4.289731028306974991e+01
-2.231301020939749336e+01
-3.366492883865367958e+01
-6.060323999784604609e+01
-6.118500545539032487e+01
-3.338917416654532389e+01
-1.536082415103556542e+01
-3.073199782950732128e+01
-5.364622922262469729e+01
-4.743605042862778021e+01
-1.480024986002851506e+01
-4.108711741016906061e+00
-2.496406985995437822e+01
-4.214657287484915571e+01
-3.058361618399476356e+01
-2.327429831216075939e+00
2.414129263245477497e-01
-1.675914393768794142e+01
-2.611731519087279096e+01
-1.420007465330702168e+01
5.304975430387635527e+00
8.851687392575788849e+00
-5.922393926056093605e+00
-1.712340628120438168e+01
-6.615396697483384436e+00
1.008937512298237849e+01
8.929763089514240804e+00
-6.020315656836193519e+00
-1.313132109966560179e+01
-2.540932564910560298e+00
4.730664739791513362e+00
3.384216915195451314e+00
2.515202330420218679e+00
-6.215589409507424890e+00
-7.882673523405479443e+00
-4.588956579932298219e+00
2.563811227304578555e+00
6.546834478787324052e+00
-4.231583941207093247e+00
-1.379419215074689653e+01
-9.577146238711657489e+00
1.170991345169640541e+00
7.585540075909906754e+00
-5.787617920662450066e-01
-1.694713163807726986e+01
-1.619232420561833408e+01
4.385604798189738140e+00
1.321311241014450744e+01
-2.143126022074271830e+00
-2.093206206411466752e+01
-2.287506620666709622e+01
-8.369541214225307835e-01
1.643914473942443877e+01
-3.435981728715167716e+00
-2.566506812547651606e+01
-2.158668148981294621e+01
6.076659453212905904e-01
9.893146130111666992e+00
-3.867025346566604238e+00
-2.367744161414801596e+01
-2.367068273122864142e+01
-2.708161747359959737e+00
8.816690296909238000e+00
-2.035658584640292368e+00
-2.220659138311055969e+01
-1.961901499053945486e+01
-8.593020904255336490e+00
2.889330543486744673e+00
-9.176466038646323709e-01
-1.507231651730023358e+01
-1.785295098485255139e+01
-1.130848267228121173e+01
-2.028475952899599477e+00
1.316936107473535844e-01
-6.391956933556060427e+00
-1.160947762731404431e+01
-1.583798412321171867e+01
-1.013741543857217486e+01
-1.441019706017757862e+00
-4.237425624992957829e+00
-1.196805989745267773e+01
-2.025257333878359489e+01
-1.485013316231877845e+01
-3.099585255116231952e+00
2.649771403120972924e+00
-8.984773507776267820e+00
-2.103568155327793221e+01
-2.082150769448777083e+01
-3.951664075656938113e+00
3.996636791888541040e+00
-2.850154349420530586e+00
-2.124298769655581509e+01
-2.688112281354334243e+01
-9.627008578773972758e+00
5.958293973479697136e+00
-9.753358047015504573e-01
-2.443554069686009456e+01
-2.592734658703286144e+01
-1.136777549234807694e+01
7.933841477705556144e+00
-1.943386016866688992e+00
-2.641213813678438171e+01
-3.285030524914458994e+01
-1.331018049472729814e+01
7.324265572845659378e+00
-3.325903921140182185e+00
-2.384711661454793941e+01
-3.552865743449404334e+01
-1.585211660813473067e+01
5.335270244053603506e+00
-2.432261579136990370e+00
-2.798042921404612215e+01
-3.490313203519228580e+01
-1.495541465452803109e+01
3.904710133628170876e+00
-4.101128660497164624e+00
-2.849057296086573743e+01
-3.408675188384484045e+01
-1.724543635001979780e+01
2.779935556708659661e+00
-9.641113154732570578e+00
-2.761167326383784015e+01
-3.344640484628169474e+01
-1.584271042511646854e+01
-3.294078596888191157e+00
-8.977317314121718184e+00
-2.945896532864252038e+01
-2.959472444019954196e+01
-1.396587204108284652e+01
-5.363941737213066219e+00
-1.398057534894270049e+01
-2.743929560894488162e+01
-3.326493873263568446e+01
-2.044224667822291508e+01
-1.213591680137709972e+01
-1.487672390117371890e+01
-2.658042567600835326e+01
-3.709202670050294159e+01
-3.031264786666427113e+01
-2.199542685261713970e+01
-1.758688474828725390e+01
-2.363430020319252023e+01
-3.937098102380693376e+01
-3.869713344397938215e+01
-2.318912297912634557e+01
-9.857895407549474243e+00
-1.089021672733277413e+01
-2.988686864134768939e+01
-3.700150882144542663e+01
-2.011000751885697468e+01
2.893792075313772916e+00
-2.745606070595364656e+00
-2.489926151014865496e+01
-3.541954212747839392e+01
-1.057461467048305792e+01
1.100140270072391857e+01
2.817184309771494366e+00
-2.631634235477779882e+01
-3.556880467338726248e+01
-1.297130216758671928e+01
1.210646058609085252e+01
1.650209157279732386e+00
-3.102634107128685059e+01
-3.303406669148991881e+01
-1.319761907418075353e+01
5.669736084301610468e+00
-3.418404858894318998e+00
-2.228993218332692905e+01
-2.860888905516403469e+01
-1.138089761348584616e+01
-3.752006419738298515e+00
-1.880112783662548992e+01
-4.206161026545465376e+01
-6.312206966760065541e+01
-8.546250488817030089e+01
-1.175816609904953509e+02
-1.586762129587940819e+02
-1.831171357364098640e+02
-1.778796980464680360e+02
-1.257894222130120738e+02
-4.565236260939222035e+01
4.234888814862748774e+01
7.708105099511269032e+01
7.410495101607236279e+01
4.612966626394594982e+01
2.812863002675982571e+01
2.867040659907382860e+01
2.176373105284047682e+01
-4.165321399329170227e+00
-2.540779331140612030e+01
-1.690686198890111669e+01
2.432663325300197688e+00
2.376510692415069403e+00
-2.225207896770513827e+01
-3.662591862430891609e+01
-1.766715862678773519e+01
9.699154108009125252e+00
-4.918618154915243679e+00
-3.432809782615490946e+01
-4.480570221323585400e+01
-1.340067273111167445e+01
9.017682141117266070e+00
-8.930062156268027351e+00
-4.669744199613231217e+01
-4.385664029560476962e+01
-8.365341926033813991e+00
9.203681458786013181e+00
-2.042898876881804782e+01
-4.863157523557575956e+01
-3.972675414121362536e+01
